197.938	41	
198.749	42	
199.559	36	
200.369	35	
201.179	37	
201.988	37	
202.798	41	
203.608	39	
204.417	42	
205.227	40	
206.036	39	
206.846	42	
207.655	44	
208.464	38	
209.273	38	
210.082	35	
210.891	35	
211.7	37	
212.508	38	
213.317	36	
214.125	35	
214.934	35	
215.742	35	
216.55	37	
217.359	35	
218.167	34	
218.975	42	
219.782	37	
220.59	39	
221.398	37	
222.206	47	
223.013	39	
223.82	33	
224.628	34	
225.435	39	
226.242	36	
227.049	38	
227.856	33	
228.663	41	
229.47	38	
230.277	36	
231.083	40	
231.89	35	
232.696	38	
233.502	39	
234.309	37	
235.115	42	
235.921	42	
236.727	35	
237.533	40	
238.339	41	
239.144	38	
239.95	47	
240.756	39	
241.561	39	
242.366	37	
243.172	36	
243.977	46	
244.782	40	
245.587	39	
246.392	45	
247.197	34	
248.001	30	
248.806	36	
249.611	37	
250.415	38	
251.219	36	
252.024	42	
252.828	37	
253.632	37	
254.436	38	
255.24	44	
256.044	45	
256.848	35	
257.651	35	
258.455	33	
259.258	41	
260.062	3007	
260.865	45	
261.668	39	
262.471	42	
263.274	44	
264.077	37	
264.88	37	
265.683	37	
266.486	37	
267.288	39	
268.091	32	
268.893	37	
269.696	41	
270.498	42	
271.3	36	
272.102	44	
272.904	40	
273.706	37	
274.508	38	
275.309	38	
276.111	39	
276.913	35	
277.714	31	
278.515	39	
279.317	43	
280.118	35	
280.919	38	
281.72	34	
282.521	42	
283.322	37	
284.122	40	
284.923	41	
285.724	36	
286.524	35	
287.325	44	
288.125	38	
288.925	37	
289.725	40	
290.525	41	
291.325	36	
292.125	36	
292.925	43	
293.724	35	
294.524	39	
295.324	37	
296.123	38	
296.922	36	
297.722	54	
298.521	38	
299.32	40	
300.119	32	
300.918	39	
301.716	47	
302.515	38	
303.314	40	
304.112	41	
304.911	42	
305.709	35	
306.507	40	
307.306	39	
308.104	41	
308.902	41	
309.7	37	
310.498	44	
311.295	37	
312.093	39	
312.891	45	
313.688	43	
314.485	42	
315.283	47	
316.08	40	
316.877	38	
317.674	37	
318.471	33	
319.268	38	
320.065	44	
320.862	42	
321.658	40	
322.455	39	
323.251	38	
324.047	34	
324.844	42	
325.64	32	
326.436	40	
327.232	40	
328.028	41	
328.824	29	
329.62	42	
330.415	46	
331.211	37	
332.006	39	
332.802	44	
333.597	38	
334.392	47	
335.187	40	
335.982	38	
336.777	41	
337.572	35	
338.367	39	
339.162	41	
339.956	41	
340.751	40	
341.545	43	
342.34	42	
343.134	37	
343.928	45	
344.722	43	
345.516	38	
346.31	33	
347.104	39	
347.898	40	
348.691	38	
349.485	35	
350.278	40	
351.072	46	
351.865	420	
352.658	40	
353.452	49	
354.245	43	
355.038	41	
355.83	39	
356.623	35	
357.416	39	
358.209	39	
359.001	38	
359.794	43	
360.586	41	
361.378	45	
362.17	36	
362.963	34	
363.755	43	
364.546	34	
365.338	39	
366.13	43	
366.922	41	
367.713	40	
368.505	41	
369.296	36	
370.088	34	
370.879	37	
371.67	37	
372.461	40	
373.252	40	
374.043	47	
374.834	38	
375.625	41	
376.415	44	
377.206	43	
377.996	37	
378.787	49	
379.577	32	
380.367	30	
381.157	42	
381.947	39	
382.737	42	
383.527	41	
384.317	40	
385.107	40	
385.896	41	
386.686	36	
387.475	43	
388.265	37	
389.054	52	
389.843	39	
390.632	37	
391.421	40	
392.21	47	
392.999	39	
393.788	41	
394.576	39	
395.365	39	
396.154	37	
396.942	33	
397.73	42	
398.519	41	
399.307	37	
400.095	39	
400.883	45	
401.671	41	
402.459	40	
403.246	33	
404.034	35	
404.822	39	
405.609	41	
406.396	47	
407.184	36	
407.971	43	
408.758	45	
409.545	30	
410.332	41	
411.119	43	
411.906	38	
412.693	40	
413.479	41	
414.266	37	
415.052	40	
415.839	39	
416.625	36	
417.411	44	
418.197	38	
418.983	47	
419.769	42	
420.555	39	
421.341	40	
422.127	40	
422.912	42	
423.698	45	
424.483	39	
425.269	37	
426.054	33	
426.839	41	
427.624	36	
428.409	38	
429.194	39	
429.979	42	
430.764	41	
431.549	39	
432.333	40	
433.118	33	
433.902	47	
434.687	42	
435.471	45	
436.255	42	
437.039	40	
437.823	41	
438.607	41	
439.391	42	
440.175	44	
440.958	35	
441.742	41	
442.526	34	
443.309	41	
444.092	41	
444.876	39	
445.659	39	
446.442	51	
447.225	40	
448.008	45	
448.791	44	
449.573	49	
450.356	42	
451.139	43	
451.921	33	
452.704	40	
453.486	38	
454.268	42	
455.05	43	
455.833	40	
456.615	40	
457.396	41	
458.178	40	
458.96	39	
459.742	39	
460.523	37	
461.305	39	
462.086	43	
462.868	48	
463.649	44	
464.43	39	
465.211	47	
465.992	36	
466.773	47	
467.554	37	
468.335	44	
469.115	43	
469.896	34	
470.676	34	
471.457	42	
472.237	43	
473.018	41	
473.798	43	
474.578	40	
475.358	38	
476.138	39	
476.918	37	
477.697	37	
478.477	45	
479.257	46	
480.036	39	
480.816	32	
481.595	42	
482.374	38	
483.153	43	
483.932	43	
484.711	39	
485.49	43	
486.269	41	
487.048	36	
487.827	47	
488.605	43	
489.384	37	
490.162	44	
490.941	49	
491.719	40	
492.497	39	
493.275	43	
494.053	46	
494.831	40	
495.609	43	
496.387	43	
497.164	42	
497.942	40	
498.72	39	
499.497	41	
500.274	33	
501.052	41	
501.829	41	
502.606	35	
503.383	36	
504.16	44	
504.937	43	
505.714	35	
506.49	43	
507.267	33	
508.043	38	
508.82	45	
509.596	36	
510.373	39	
511.149	38	
511.925	34	
512.701	44	
513.477	48	
514.253	41	
515.029	35	
515.804	40	
516.58	43	
517.356	42	
518.131	45	
518.906	38	
519.682	42	
520.457	36	
521.232	40	
522.007	39	
522.782	38	
523.557	36	
524.332	35	
525.107	42	
525.881	43	
526.656	34	
527.43	33	
528.205	40	
528.979	39	
529.753	40	
530.527	42	
531.302	37	
532.076	43	
532.849	41	
533.623	39	
534.397	37	
535.171	40	
535.944	41	
536.718	39	
537.491	50	
538.265	35	
539.038	43	
539.811	44	
540.584	47	
541.357	49	
542.13	60	
542.903	58	
543.676	58	
544.449	55	
545.221	55	
545.994	49	
546.766	44	
547.539	41	
548.311	45	
549.083	42	
549.855	34	
550.627	49	
551.399	40	
552.171	48	
552.943	42	
553.715	40	
554.486	37	
555.258	37	
556.029	35	
556.801	42	
557.572	34	
558.343	43	
559.114	46	
559.886	46	
560.657	40	
561.427	35	
562.198	36	
562.969	41	
563.74	38	
564.51	36	
565.281	46	
566.051	36	
566.822	38	
567.592	40	
568.362	37	
569.132	38	
569.902	48	
570.672	39	
571.442	41	
572.212	41	
572.982	37	
573.751	43	
574.521	42	
575.29	48	
576.06	47	
576.829	40	
577.598	40	
578.367	37	
579.136	38	
579.905	48	
580.674	51	
581.443	46	
582.212	40	
582.981	47	
583.749	38	
584.518	39	
585.286	46	
586.054	51	
586.823	48	
587.591	42	
588.359	46	
589.127	47	
589.895	47	
590.663	47	
591.431	46	
592.198	47	
592.966	46	
593.734	48	
594.501	38	
595.268	40	
596.036	44	
596.803	38	
597.57	41	
598.337	43	
599.104	40	
599.871	45	
600.638	43	
601.405	45	
602.171	39	
602.938	52	
603.704	36	
604.471	43	
605.237	43	
606.004	44	
606.77	42	
607.536	49	
608.302	48	
609.068	47	
609.834	57	
610.599	74	
611.365	58	
612.131	52	
612.896	51	
613.662	54	
614.427	48	
615.193	42	
615.958	42	
616.723	46	
617.488	38	
618.253	45	
619.018	42	
619.783	43	
620.548	51	
621.312	43	
622.077	40	
622.842	45	
623.606	48	
624.37	43	
625.135	42	
625.899	47	
626.663	42	
627.427	45	
628.191	43	
628.955	48	
629.719	41	
630.483	46	
631.246	35	
632.01	41	
632.773	46	
633.537	38	
634.3	41	
635.063	43	
635.827	39	
636.59	40	
637.353	42	
638.116	47	
638.879	35	
639.641	48	
640.404	43	
641.167	39	
641.929	43	
642.692	36	
643.454	40	
644.216	43	
644.979	45	
645.741	40	
646.503	47	
647.265	46	
648.027	43	
648.789	38	
649.551	41	
650.312	39	
651.074	39	
651.835	41	
652.597	43	
653.358	46	
654.12	40	
654.881	42	
655.642	43	
656.403	37	
657.164	40	
657.925	41	
658.686	44	
659.447	38	
660.207	37	
660.968	41	
661.728	45	
662.489	40	
663.249	40	
664.01	41	
664.77	39	
665.53	44	
666.29	37	
667.05	46	
667.81	44	
668.57	40	
669.329	38	
670.089	38	
670.849	41	
671.608	47	
672.368	33	
673.127	40	
673.886	39	
674.646	35	
675.405	38	
676.164	42	
676.923	43	
677.682	48	
678.44	41	
679.199	35	
679.958	49	
680.717	39	
681.475	39	
682.233	40	
682.992	36	
683.75	38	
684.508	42	
685.266	37	
686.024	44	
686.782	37	
687.54	44	
688.298	41	
689.056	45	
689.814	35	
690.571	40	
691.329	41	
692.086	37	
692.843	37	
693.601	44	
694.358	45	
695.115	36	
695.872	40	
696.629	34	
697.386	45	
698.143	47	
698.9	38	
699.656	39	
700.413	36	
701.169	42	
701.926	40	
702.682	37	
703.438	37	
704.195	46	
704.951	37	
705.707	35	
706.463	38	
707.219	40	
707.974	40	
708.73	33	
709.486	36	
710.241	40	
710.997	43	
711.752	41	
712.508	44	
713.263	41	
714.018	39	
714.773	41	
715.528	45	
716.283	45	
717.038	34	
717.793	41	
718.548	40	
719.303	39	
720.057	37	
720.812	35	
721.566	34	
722.321	38	
723.075	40	
723.829	47	
724.583	36	
725.337	37	
726.091	43	
726.845	40	
727.599	35	
728.353	39	
729.106	36	
729.86	44	
730.614	38	
731.367	378	
732.12	37	
732.874	37	
733.627	42	
734.38	45	
735.133	40	
735.886	37	
736.639	41	
737.392	47	
738.145	34	
738.897	43	
739.65	40	
740.403	41	
741.155	40	
741.907	39	
742.66	46	
743.412	32	
744.164	40	
744.916	35	
745.668	45	
746.42	47	
747.172	38	
747.924	40	
748.676	34	
749.427	40	
750.179	39	
750.93	46	
751.682	36	
752.433	44	
753.184	46	
753.935	39	
754.687	35	
755.438	40	
756.189	36	
756.939	36	
757.69	35	
758.441	45	
759.192	35	
759.942	44	
760.693	44	
761.443	41	
762.194	35	
762.944	39	
763.694	44	
764.444	39	
765.194	41	
765.944	41	
766.694	45	
767.444	44	
768.194	41	
768.943	38	
769.693	39	
770.443	41	
771.192	44	
771.941	35	
772.691	42	
773.44	37	
774.189	46	
774.938	40	
775.687	39	
776.436	38	
777.185	42	
777.934	36	
778.683	42	
779.431	36	
780.18	41	
780.928	37	
781.677	39	
782.425	42	
783.173	48	
783.922	40	
784.67	48	
785.418	45	
786.166	47	
786.914	39	
787.661	41	
788.409	40	
789.157	41	
789.904	43	
790.652	46	
791.399	40	
792.147	39	
792.894	46	
793.641	39	
794.388	307	
795.136	45	
795.883	42	
796.629	45	
797.376	37	
798.123	39	
798.87	38	
799.616	38	
800.363	44	
801.109	48	
801.856	39	
802.602	33	
803.349	46	
804.095	49	
804.841	44	
805.587	43	
806.333	41	
807.079	43	
807.825	44	
808.57	38	
809.316	47	
810.062	44	
810.807	44	
811.553	50	
812.298	42	
813.043	39	
813.788	45	
814.534	43	
815.279	41	
816.024	45	
816.769	42	
817.514	43	
818.258	43	
819.003	51	
819.748	880	
820.492	42	
821.237	267	
821.981	41	
822.726	43	
823.47	49	
824.214	46	
824.958	37	
825.702	44	
826.446	46	
827.19	41	
827.934	49	
828.678	43	
829.421	46	
830.165	45	
830.909	43	
831.652	42	
832.395	45	
833.139	45	
833.882	51	
834.625	45	
835.368	44	
836.111	40	
836.854	43	
837.597	39	
838.34	47	
839.083	45	
839.825	46	
840.568	37	
841.311	41	
842.053	46	
842.795	39	
843.538	44	
844.28	38	
845.022	35	
845.764	47	
846.506	37	
847.248	41	
847.99	42	
848.732	46	
849.474	39	
850.215	40	
850.957	34	
851.698	45	
852.44	45	
853.181	41	
853.922	44	
854.664	38	
855.405	45	
856.146	35	
856.887	41	
857.628	48	
858.369	37	
859.109	46	
859.85	40	
860.591	45	
861.331	40	
862.072	35	
862.812	34	
863.553	36	
864.293	45	
865.033	35	
865.773	40	
866.513	42	
867.253	40	
867.993	35	
868.733	41	
869.473	45	
870.213	46	
870.952	34	
871.692	40	
872.431	40	
873.171	38	
873.91	40	
874.649	34	
875.388	44	
876.128	38	
876.867	37	
877.606	39	
878.345	38	
879.083	35	
879.822	42	
880.561	38	
881.299	42	
882.038	39	
882.777	44	
883.515	43	
884.253	457	
884.992	37	
885.73	38	
886.468	37	
887.206	45	
887.944	41	
888.682	47	
889.42	40	
890.157	44	
890.895	37	
891.633	75	
892.37	39	
893.108	41	
893.845	41	
894.583	43	
895.32	34	
896.057	41	
896.794	38	
897.531	46	
898.268	40	
899.005	36	
899.742	37	
900.479	36	
901.215	40	
901.952	43	
902.689	34	
903.425	34	
904.162	37	
904.898	37	
905.634	47	
906.37	39	
907.106	33	
907.843	41	
908.579	40	
909.314	30	
910.05	39	
910.786	37	
911.522	37	
912.257	48	
912.993	37	
913.728	36	
914.464	38	
915.199	39	
915.935	36	
916.67	36	
917.405	40	
918.14	43	
918.875	44	
919.61	45	
920.345	43	
921.08	47	
921.814	38	
922.549	35	
923.284	52	
924.018	36	
924.752	45	
925.487	47	
926.221	42	
926.955	38	
927.69	38	
928.424	40	
929.158	40	
929.892	42	
930.625	41	
931.359	44	
932.093	40	
932.827	40	
933.56	37	
934.294	32	
935.027	40	
935.761	44	
936.494	40	
937.227	38	
937.96	39	
938.693	40	
939.426	37	
940.159	46	
940.892	42	
941.625	48	
942.358	43	
943.091	39	
943.823	38	
944.556	36	
945.288	38	
946.021	41	
946.753	38	
947.485	41	
948.217	40	
948.95	39	
949.682	34	
950.414	35	
951.146	40	
951.877	32	
952.609	35	
953.341	42	
954.073	41	
954.804	40	
955.536	43	
956.267	41	
956.998	32	
957.73	35	
958.461	34	
959.192	38	
959.923	43	
960.654	39	
961.385	35	
962.116	42	
962.847	40	
963.578	41	
964.308	37	
965.039	34	
965.769	40	
966.5	41	
967.23	31	
967.961	43	
968.691	41	
969.421	33	
970.151	42	
970.881	37	
971.611	41	
972.341	43	
973.071	41	
973.801	47	
974.53	39	
975.26	38	
975.99	36	
976.719	43	
977.448	40	
978.178	40	
978.907	40	
979.636	39	
980.365	44	
981.095	45	
981.824	43	
982.553	44	
983.281	36	
984.01	1	
984.739	-6	
985.468	-4	
986.196	-5	
986.925	49	
987.653	34	
988.382	44	
989.11	37	
989.838	41	
990.566	45	
991.295	39	
992.023	46	
992.751	46	
993.478	42	
994.206	44	
994.934	37	
995.662	0	
996.389	0	
997.117	9	
997.845	5	

