197.938	3.38	
198.749	5.38	
199.559	-6.62	
200.369	2.38	
201.179	3.38	
201.988	1.38	
202.798	-0.62	
203.608	-4.62	
204.417	-1.62	
205.227	-1.62	
206.036	-9.62	
206.846	2.38	
207.655	-2.62	
208.464	-2.62	
209.273	-1.62	
210.082	-4.62	
210.891	4.38	
211.7	-4.62	
212.508	2.38	
213.317	1.38	
214.125	-3.62	
214.934	-5.62	
215.742	-1.62	
216.55	-4.62	
217.359	-6.62	
218.167	-4.62	
218.975	-0.62	
219.782	-2.62	
220.59	-2.62	
221.398	7.38	
222.206	-0.62	
223.013	-0.62	
223.82	0.38	
224.628	-4.62	
225.435	-2.62	
226.242	-1.62	
227.049	-1.62	
227.856	1.38	
228.663	-4.62	
229.47	-0.62	
230.277	-0.62	
231.083	-1.62	
231.89	1.38	
232.696	0.38	
233.502	-3.62	
234.309	-3.62	
235.115	-5.62	
235.921	-0.62	
236.727	-1.62	
237.533	-2.62	
238.339	4.38	
239.144	-0.62	
239.95	-0.62	
240.756	-5.62	
241.561	1.38	
242.366	4.38	
243.172	-1.62	
243.977	6.38	
244.782	-1.62	
245.587	3.38	
246.392	0.38	
247.197	-3.62	
248.001	0.38	
248.806	-1.62	
249.611	-6.62	
250.415	2.38	
251.219	4.38	
252.024	1.38	
252.828	1.38	
253.632	1.38	
254.436	4.38	
255.24	0.38	
256.044	2.38	
256.848	6.38	
257.651	-5.62	
258.455	-3.62	
259.258	-6.62	
260.062	16.38	
260.865	3.38	
261.668	2.38	
262.471	1.38	
263.274	2.38	
264.077	4.38	
264.88	1.38	
265.683	5.38	
266.486	1.38	
267.288	-0.62	
268.091	-6.62	
268.893	0.38	
269.696	-7.62	
270.498	-5.62	
271.3	-1.62	
272.102	-8.62	
272.904	-2.62	
273.706	-4.62	
274.508	0.38	
275.309	2.38	
276.111	0.38	
276.913	-3.62	
277.714	-3.62	
278.515	-0.62	
279.317	-1.62	
280.118	-3.62	
280.919	-0.62	
281.72	0.38	
282.521	-9.62	
283.322	2.38	
284.122	3.38	
284.923	2.38	
285.724	-2.62	
286.524	-5.62	
287.325	-4.62	
288.125	-1.62	
288.925	-0.62	
289.725	-7.62	
290.525	-3.62	
291.325	0.38	
292.125	-6.62	
292.925	-9.62	
293.724	-2.62	
294.524	-6.62	
295.324	1.38	
296.123	-0.62	
296.922	-0.62	
297.722	2.38	
298.521	3.38	
299.32	-5.62	
300.119	-2.62	
300.918	-5.62	
301.716	-0.62	
302.515	-1.62	
303.314	3.38	
304.112	3.38	
304.911	-3.62	
305.709	2.38	
306.507	1.38	
307.306	2.38	
308.104	-1.62	
308.902	-2.62	
309.7	2.38	
310.498	-5.62	
311.295	-0.62	
312.093	-6.62	
312.891	-4.62	
313.688	-2.62	
314.485	-3.62	
315.283	0.38	
316.08	3.38	
316.877	-1.62	
317.674	-4.62	
318.471	1.38	
319.268	-3.62	
320.065	1.38	
320.862	-4.62	
321.658	-4.62	
322.455	0.38	
323.251	-3.62	
324.047	1.38	
324.844	0.38	
325.64	-2.62	
326.436	4.38	
327.232	-2.62	
328.028	-0.62	
328.824	-1.62	
329.62	-3.62	
330.415	0.38	
331.211	-4.62	
332.006	-4.62	
332.802	-1.62	
333.597	-9.62	
334.392	4.38	
335.187	-0.62	
335.982	-2.62	
336.777	0.38	
337.572	0.38	
338.367	0.38	
339.162	0.38	
339.956	-3.62	
340.751	-0.62	
341.545	-4.62	
342.34	3.38	
343.134	1.38	
343.928	-8.62	
344.722	1.38	
345.516	-6.62	
346.31	-3.62	
347.104	0.38	
347.898	-2.62	
348.691	2.38	
349.485	0.38	
350.278	2.38	
351.072	-1.62	
351.865	-47.62	
352.658	5.38	
353.452	6.38	
354.245	-3.62	
355.038	1.38	
355.83	1.38	
356.623	3.38	
357.416	3.38	
358.209	-3.62	
359.001	4.38	
359.794	2.38	
360.586	7.38	
361.378	11.38	
362.17	5.38	
362.963	7.38	
363.755	9.38	
364.546	6.38	
365.338	11.38	
366.13	2.38	
366.922	10.38	
367.713	11.38	
368.505	7.38	
369.296	12.38	
370.088	10.38	
370.879	19.38	
371.67	41.38	
372.461	50.38	
373.252	95.38	
374.043	142.38	
374.834	207.38	
375.625	289.38	
376.415	365.38	
377.206	476.38	
377.996	576.38	
378.787	657.38	
379.577	705.38	
380.367	711.38	
381.157	659.38	
381.947	553.38	
382.737	418.38	
383.527	275.38	
384.317	150.38	
385.107	80.38	
385.896	38.38	
386.686	21.38	
387.475	21.38	
388.265	12.38	
389.054	9.38	
389.843	14.38	
390.632	14.38	
391.421	11.38	
392.21	7.38	
392.999	14.38	
393.788	12.38	
394.576	9.38	
395.365	18.38	
396.154	11.38	
396.942	9.38	
397.73	12.38	
398.519	6.38	
399.307	11.38	
400.095	9.38	
400.883	12.38	
401.671	16.38	
402.459	12.38	
403.246	11.38	
404.034	8.38	
404.822	7.38	
405.609	10.38	
406.396	13.38	
407.184	13.38	
407.971	14.38	
408.758	9.38	
409.545	18.38	
410.332	9.38	
411.119	12.38	
411.906	12.38	
412.693	13.38	
413.479	18.38	
414.266	19.38	
415.052	14.38	
415.839	12.38	
416.625	12.38	
417.411	15.38	
418.197	9.38	
418.983	8.38	
419.769	14.38	
420.555	10.38	
421.341	11.38	
422.127	14.38	
422.912	11.38	
423.698	17.38	
424.483	11.38	
425.269	10.38	
426.054	7.38	
426.839	9.38	
427.624	11.38	
428.409	12.38	
429.194	9.38	
429.979	11.38	
430.764	5.38	
431.549	12.38	
432.333	14.38	
433.118	10.38	
433.902	15.38	
434.687	12.38	
435.471	10.38	
436.255	12.38	
437.039	9.38	
437.823	14.38	
438.607	3.38	
439.391	4.38	
440.175	12.38	
440.958	7.38	
441.742	9.38	
442.526	12.38	
443.309	7.38	
444.092	16.38	
444.876	14.38	
445.659	12.38	
446.442	11.38	
447.225	7.38	
448.008	14.38	
448.791	9.38	
449.573	19.38	
450.356	15.38	
451.139	8.38	
451.921	14.38	
452.704	7.38	
453.486	11.38	
454.268	20.38	
455.05	13.38	
455.833	15.38	
456.615	14.38	
457.396	20.38	
458.178	17.38	
458.96	14.38	
459.742	18.38	
460.523	14.38	
461.305	19.38	
462.086	15.38	
462.868	15.38	
463.649	17.38	
464.43	17.38	
465.211	24.38	
465.992	31.38	
466.773	25.38	
467.554	24.38	
468.335	25.38	
469.115	23.38	
469.896	17.38	
470.676	22.38	
471.457	16.38	
472.237	27.38	
473.018	16.38	
473.798	21.38	
474.578	23.38	
475.358	16.38	
476.138	21.38	
476.918	13.38	
477.697	21.38	
478.477	18.38	
479.257	21.38	
480.036	22.38	
480.816	18.38	
481.595	22.38	
482.374	25.38	
483.153	17.38	
483.932	22.38	
484.711	20.38	
485.49	14.38	
486.269	18.38	
487.048	18.38	
487.827	25.38	
488.605	15.38	
489.384	18.38	
490.162	26.38	
490.941	14.38	
491.719	21.38	
492.497	20.38	
493.275	14.38	
494.053	22.38	
494.831	13.38	
495.609	17.38	
496.387	18.38	
497.164	13.38	
497.942	25.38	
498.72	21.38	
499.497	21.38	
500.274	21.38	
501.052	17.38	
501.829	20.38	
502.606	19.38	
503.383	19.38	
504.16	23.38	
504.937	14.38	
505.714	21.38	
506.49	19.38	
507.267	21.38	
508.043	18.38	
508.82	17.38	
509.596	21.38	
510.373	25.38	
511.149	17.38	
511.925	20.38	
512.701	19.38	
513.477	20.38	
514.253	27.38	
515.029	16.38	
515.804	22.38	
516.58	19.38	
517.356	24.38	
518.131	30.38	
518.906	22.38	
519.682	30.38	
520.457	26.38	
521.232	27.38	
522.007	30.38	
522.782	27.38	
523.557	27.38	
524.332	31.38	
525.107	31.38	
525.881	32.38	
526.656	33.38	
527.43	35.38	
528.205	36.38	
528.979	29.38	
529.753	29.38	
530.527	35.38	
531.302	36.38	
532.076	36.38	
532.849	29.38	
533.623	36.38	
534.397	36.38	
535.171	37.38	
535.944	35.38	
536.718	28.38	
537.491	38.38	
538.265	33.38	
539.038	31.38	
539.811	36.38	
540.584	34.38	
541.357	34.38	
542.13	33.38	
542.903	34.38	
543.676	39.38	
544.449	36.38	
545.221	36.38	
545.994	36.38	
546.766	37.38	
547.539	48.38	
548.311	32.38	
549.083	33.38	
549.855	49.38	
550.627	41.38	
551.399	42.38	
552.171	40.38	
552.943	37.38	
553.715	49.38	
554.486	42.38	
555.258	40.38	
556.029	42.38	
556.801	38.38	
557.572	42.38	
558.343	37.38	
559.114	48.38	
559.886	42.38	
560.657	43.38	
561.427	47.38	
562.198	44.38	
562.969	44.38	
563.74	44.38	
564.51	40.38	
565.281	45.38	
566.051	42.38	
566.822	39.38	
567.592	45.38	
568.362	36.38	
569.132	44.38	
569.902	44.38	
570.672	48.38	
571.442	48.38	
572.212	38.38	
572.982	43.38	
573.751	45.38	
574.521	43.38	
575.29	46.38	
576.06	41.38	
576.829	40.38	
577.598	43.38	
578.367	37.38	
579.136	36.38	
579.905	41.38	
580.674	34.38	
581.443	47.38	
582.212	41.38	
582.981	41.38	
583.749	41.38	
584.518	39.38	
585.286	50.38	
586.054	39.38	
586.823	44.38	
587.591	44.38	
588.359	42.38	
589.127	48.38	
589.895	38.38	
590.663	43.38	
591.431	43.38	
592.198	39.38	
592.966	48.38	
593.734	41.38	
594.501	50.38	
595.268	47.38	
596.036	38.38	
596.803	44.38	
597.57	42.38	
598.337	41.38	
599.104	50.38	
599.871	40.38	
600.638	50.38	
601.405	47.38	
602.171	41.38	
602.938	38.38	
603.704	45.38	
604.471	39.38	
605.237	39.38	
606.004	37.38	
606.77	41.38	
607.536	36.38	
608.302	34.38	
609.068	37.38	
609.834	38.38	
610.599	35.38	
611.365	34.38	
612.131	37.38	
612.896	37.38	
613.662	40.38	
614.427	38.38	
615.193	44.38	
615.958	42.38	
616.723	39.38	
617.488	40.38	
618.253	44.38	
619.018	42.38	
619.783	40.38	
620.548	53.38	
621.312	49.38	
622.077	47.38	
622.842	48.38	
623.606	41.38	
624.37	50.38	
625.135	45.38	
625.899	42.38	
626.663	45.38	
627.427	40.38	
628.191	40.38	
628.955	46.38	
629.719	41.38	
630.483	47.38	
631.246	43.38	
632.01	49.38	
632.773	48.38	
633.537	44.38	
634.3	49.38	
635.063	43.38	
635.827	39.38	
636.59	42.38	
637.353	42.38	
638.116	40.38	
638.879	45.38	
639.641	45.38	
640.404	39.38	
641.167	40.38	
641.929	40.38	
642.692	38.38	
643.454	39.38	
644.216	41.38	
644.979	41.38	
645.741	43.38	
646.503	44.38	
647.265	39.38	
648.027	43.38	
648.789	42.38	
649.551	41.38	
650.312	39.38	
651.074	43.38	
651.835	46.38	
652.597	39.38	
653.358	43.38	
654.12	45.38	
654.881	40.38	
655.642	43.38	
656.403	40.38	
657.164	42.38	
657.925	46.38	
658.686	44.38	
659.447	42.38	
660.207	41.38	
660.968	45.38	
661.728	48.38	
662.489	46.38	
663.249	50.38	
664.01	46.38	
664.77	50.38	
665.53	52.38	
666.29	54.38	
667.05	47.38	
667.81	51.38	
668.57	48.38	
669.329	53.38	
670.089	52.38	
670.849	55.38	
671.608	48.38	
672.368	55.38	
673.127	61.38	
673.886	56.38	
674.646	55.38	
675.405	59.38	
676.164	58.38	
676.923	49.38	
677.682	56.38	
678.44	59.38	
679.199	55.38	
679.958	60.38	
680.717	69.38	
681.475	58.38	
682.233	59.38	
682.992	68.38	
683.75	68.38	
684.508	62.38	
685.266	69.38	
686.024	68.38	
686.782	64.38	
687.54	60.38	
688.298	61.38	
689.056	62.38	
689.814	60.38	
690.571	62.38	
691.329	61.38	
692.086	61.38	
692.843	61.38	
693.601	67.38	
694.358	60.38	
695.115	62.38	
695.872	61.38	
696.629	65.38	
697.386	61.38	
698.143	57.38	
698.9	59.38	
699.656	60.38	
700.413	58.38	
701.169	63.38	
701.926	59.38	
702.682	62.38	
703.438	57.38	
704.195	61.38	
704.951	58.38	
705.707	57.38	
706.463	54.38	
707.219	54.38	
707.974	59.38	
708.73	53.38	
709.486	49.38	
710.241	55.38	
710.997	50.38	
711.752	50.38	
712.508	49.38	
713.263	45.38	
714.018	43.38	
714.773	38.38	
715.528	36.38	
716.283	41.38	
717.038	33.38	
717.793	39.38	
718.548	40.38	
719.303	26.38	
720.057	36.38	
720.812	31.38	
721.566	28.38	
722.321	31.38	
723.075	26.38	
723.829	33.38	
724.583	28.38	
725.337	32.38	
726.091	29.38	
726.845	24.38	
727.599	23.38	
728.353	29.38	
729.106	24.38	
729.86	25.38	
730.614	31.38	
731.367	23.38	
732.12	27.38	
732.874	26.38	
733.627	28.38	
734.38	24.38	
735.133	27.38	
735.886	24.38	
736.639	24.38	
737.392	28.38	
738.145	23.38	
738.897	16.38	
739.65	28.38	
740.403	14.38	
741.155	18.38	
741.907	20.38	
742.66	20.38	
743.412	20.38	
744.164	29.38	
744.916	22.38	
745.668	21.38	
746.42	26.38	
747.172	24.38	
747.924	24.38	
748.676	25.38	
749.427	23.38	
750.179	17.38	
750.93	19.38	
751.682	17.38	
752.433	19.38	
753.184	21.38	
753.935	20.38	
754.687	11.38	
755.438	20.38	
756.189	19.38	
756.939	20.38	
757.69	10.38	
758.441	15.38	
759.192	14.38	
759.942	15.38	
760.693	15.38	
761.443	14.38	
762.194	13.38	
762.944	23.38	
763.694	20.38	
764.444	27.38	
765.194	16.38	
765.944	9.38	
766.694	20.38	
767.444	5.38	
768.194	16.38	
768.943	5.38	
769.693	6.38	
770.443	13.38	
771.192	13.38	
771.941	5.38	
772.691	11.38	
773.44	7.38	
774.189	12.38	
774.938	0.38	
775.687	5.38	
776.436	8.38	
777.185	8.38	
777.934	0.38	
778.683	4.38	
779.431	6.38	
780.18	1.38	
780.928	-2.62	
781.677	4.38	
782.425	2.38	
783.173	4.38	
783.922	2.38	
784.67	-1.62	
785.418	4.38	
786.166	-0.62	
786.914	-1.62	
787.661	-1.62	
788.409	-2.62	
789.157	0.38	
789.904	-1.62	
790.652	-0.62	
791.399	4.38	
792.147	1.38	
792.894	-0.62	
793.641	2.38	
794.388	-21.62	
795.136	-1.62	
795.883	0.38	
796.629	0.38	
797.376	-0.62	
798.123	4.38	
798.87	-2.62	
799.616	-2.62	
800.363	-2.62	
801.109	0.38	
801.856	-6.62	
802.602	-3.62	
803.349	1.38	
804.095	6.38	
804.841	0.38	
805.587	-1.62	
806.333	0.38	
807.079	1.38	
807.825	-0.62	
808.57	0.38	
809.316	-3.62	
810.062	-6.62	
810.807	5.38	
811.553	-3.62	
812.298	-2.62	
813.043	-3.62	
813.788	-0.62	
814.534	8.38	
815.279	-3.62	
816.024	-4.62	
816.769	-0.62	
817.514	4.38	
818.258	4.38	
819.003	1.38	
819.748	15.38	
820.492	-3.62	
821.237	-34.62	
821.981	-4.62	
822.726	-6.62	
823.47	-3.62	
824.214	2.38	
824.958	0.38	
825.702	-4.62	
826.446	-3.62	
827.19	-0.62	
827.934	0.38	
828.678	-1.62	
829.421	0.38	
830.165	-4.62	
830.909	-8.62	
831.652	-2.62	
832.395	-5.62	
833.139	-2.62	
833.882	-3.62	
834.625	0.38	
835.368	-1.62	
836.111	-0.62	
836.854	-0.62	
837.597	5.38	
838.34	-9.62	
839.083	-8.62	
839.825	-0.62	
840.568	-1.62	
841.311	-6.62	
842.053	-3.62	
842.795	2.38	
843.538	3.38	
844.28	-1.62	
845.022	3.38	
845.764	-4.62	
846.506	2.38	
847.248	-2.62	
847.99	-0.62	
848.732	-5.62	
849.474	-1.62	
850.215	-1.62	
850.957	0.38	
851.698	-3.62	
852.44	1.38	
853.181	-5.62	
853.922	-5.62	
854.664	1.38	
855.405	2.38	
856.146	-5.62	
856.887	-1.62	
857.628	-6.62	
858.369	1.38	
859.109	2.38	
859.85	0.38	
860.591	3.38	
861.331	-3.62	
862.072	0.38	
862.812	0.38	
863.553	-6.62	
864.293	0.38	
865.033	-5.62	
865.773	-2.62	
866.513	-2.62	
867.253	-2.62	
867.993	-8.62	
868.733	-4.62	
869.473	0.38	
870.213	-4.62	
870.952	1.38	
871.692	3.38	
872.431	-2.62	
873.171	-1.62	
873.91	-3.62	
874.649	-0.62	
875.388	0.38	
876.128	1.38	
876.867	-0.62	
877.606	-1.62	
878.345	-2.62	
879.083	-1.62	
879.822	-5.62	
880.561	-9.62	
881.299	1.38	
882.038	-2.62	
882.777	-2.62	
883.515	-4.62	
884.253	16.38	
884.992	-2.62	
885.73	0.38	
886.468	-1.62	
887.206	-1.62	
887.944	-2.62	
888.682	-1.62	
889.42	4.38	
890.157	2.38	
890.895	-2.62	
891.633	-5.62	
892.37	2.38	
893.108	-1.62	
893.845	-5.62	
894.583	1.38	
895.32	-1.62	
896.057	-0.62	
896.794	-3.62	
897.531	-0.62	
898.268	-1.62	
899.005	-1.62	
899.742	-1.62	
900.479	-0.62	
901.215	-0.62	
901.952	-6.62	
902.689	-2.62	
903.425	-3.62	
904.162	10.38	
904.898	7.38	
905.634	3.38	
906.37	2.38	
907.106	2.38	
907.843	4.38	
908.579	-3.62	
909.314	-2.62	
910.05	-1.62	
910.786	-8.62	
911.522	-1.62	
912.257	-6.62	
912.993	-2.62	
913.728	-4.62	
914.464	1.38	
915.199	2.38	
915.935	-1.62	
916.67	-4.62	
917.405	1.38	
918.14	0.38	
918.875	-1.62	
919.61	-10.62	
920.345	-2.62	
921.08	2.38	
921.814	-3.62	
922.549	-5.62	
923.284	-2.62	
924.018	-0.62	
924.752	-1.62	
925.487	-1.62	
926.221	-0.62	
926.955	-2.62	
927.69	-1.62	
928.424	1.38	
929.158	-1.62	
929.892	-3.62	
930.625	-6.62	
931.359	-8.62	
932.093	4.38	
932.827	-0.62	
933.56	-4.62	
934.294	-3.62	
935.027	-2.62	
935.761	-2.62	
936.494	-1.62	
937.227	-8.62	
937.96	-0.62	
938.693	-1.62	
939.426	-1.62	
940.159	1.38	
940.892	0.38	
941.625	0.38	
942.358	0.38	
943.091	-3.62	
943.823	-0.62	
944.556	-0.62	
945.288	0.38	
946.021	-0.62	
946.753	-1.62	
947.485	-5.62	
948.217	2.38	
948.95	-0.62	
949.682	-4.62	
950.414	-2.62	
951.146	-0.62	
951.877	-7.62	
952.609	1.38	
953.341	-1.62	
954.073	-2.62	
954.804	-2.62	
955.536	-4.62	
956.267	-3.62	
956.998	0.38	
957.73	-1.62	
958.461	2.38	
959.192	-6.62	
959.923	2.38	
960.654	0.38	
961.385	2.38	
962.116	3.38	
962.847	1.38	
963.578	-0.62	
964.308	3.38	
965.039	-1.62	
965.769	1.38	
966.5	-3.62	
967.23	-0.62	
967.961	2.38	
968.691	-2.62	
969.421	-4.62	
970.151	-1.62	
970.881	2.38	
971.611	-1.62	
972.341	-2.62	
973.071	-3.62	
973.801	-0.62	
974.53	1.38	
975.26	-0.62	
975.99	-5.62	
976.719	1.38	
977.448	-3.62	
978.178	-3.62	
978.907	7.38	
979.636	0.38	
980.365	-1.62	
981.095	0.38	
981.824	-3.62	
982.553	3.38	
983.281	4.38	
984.01	0.38	
984.739	3.38	
985.468	-0.62	
986.196	-1.62	
986.925	-7.62	
987.653	-2.62	
988.382	-5.62	
989.11	-0.62	
989.838	3.38	
990.566	3.38	
991.295	-10.62	
992.023	-5.62	
992.751	-4.62	
993.478	-1.62	
994.206	-1.62	
994.934	-3.62	
995.662	-1.62	
996.389	0.38	
997.117	-1.62	
997.845	1.38	

