197.938	4.75	
198.749	1.75	
199.559	-4.25	
200.369	-0.25	
201.179	3.75	
201.988	4.75	
202.798	4.75	
203.608	-3.25	
204.417	-1.25	
205.227	-2.25	
206.036	-5.25	
206.846	1.75	
207.655	-4.25	
208.464	0.75	
209.273	3.75	
210.082	-5.25	
210.891	2.75	
211.7	0.75	
212.508	1.75	
213.317	1.75	
214.125	-3.25	
214.934	2.75	
215.742	1.75	
216.55	0.75	
217.359	-1.25	
218.167	-2.25	
218.975	-3.25	
219.782	1.75	
220.59	-4.25	
221.398	1.75	
222.206	-1.25	
223.013	-1.25	
223.82	2.75	
224.628	-2.25	
225.435	1.75	
226.242	-2.25	
227.049	4.75	
227.856	1.75	
228.663	1.75	
229.47	4.75	
230.277	-2.25	
231.083	-0.25	
231.89	3.75	
232.696	-0.25	
233.502	1.75	
234.309	-5.25	
235.115	-2.25	
235.921	-4.25	
236.727	4.75	
237.533	1.75	
238.339	2.75	
239.144	2.75	
239.95	0.75	
240.756	-2.25	
241.561	-7.25	
242.366	3.75	
243.172	-0.25	
243.977	5.75	
244.782	-0.25	
245.587	-0.25	
246.392	-0.25	
247.197	-6.25	
248.001	4.75	
248.806	3.75	
249.611	-3.25	
250.415	1.75	
251.219	4.75	
252.024	1.75	
252.828	0.75	
253.632	-2.25	
254.436	3.75	
255.24	-1.25	
256.044	2.75	
256.848	0.75	
257.651	-4.25	
258.455	1.75	
259.258	-4.25	
260.062	32.75	
260.865	6.75	
261.668	2.75	
262.471	6.75	
263.274	-0.25	
264.077	0.75	
264.88	1.75	
265.683	5.75	
266.486	2.75	
267.288	0.75	
268.091	-2.25	
268.893	1.75	
269.696	-3.25	
270.498	-2.25	
271.3	4.75	
272.102	-7.25	
272.904	-3.25	
273.706	-1.25	
274.508	-2.25	
275.309	-3.25	
276.111	-1.25	
276.913	-6.25	
277.714	-2.25	
278.515	-0.25	
279.317	-3.25	
280.118	-0.25	
280.919	-1.25	
281.72	1.75	
282.521	-5.25	
283.322	2.75	
284.122	-0.25	
284.923	4.75	
285.724	-2.25	
286.524	-5.25	
287.325	-1.25	
288.125	-4.25	
288.925	-4.25	
289.725	-1.25	
290.525	-4.25	
291.325	3.75	
292.125	-3.25	
292.925	-4.25	
293.724	-7.25	
294.524	-2.25	
295.324	-6.25	
296.123	2.75	
296.922	-3.25	
297.722	2.75	
298.521	-2.25	
299.32	3.75	
300.119	-6.25	
300.918	-3.25	
301.716	1.75	
302.515	2.75	
303.314	5.75	
304.112	4.75	
304.911	-9.25	
305.709	2.75	
306.507	4.75	
307.306	-4.25	
308.104	-2.25	
308.902	-1.25	
309.7	-3.25	
310.498	-3.25	
311.295	0.75	
312.093	-0.25	
312.891	0.75	
313.688	0.75	
314.485	0.75	
315.283	-0.25	
316.08	3.75	
316.877	-1.25	
317.674	-6.25	
318.471	-0.25	
319.268	1.75	
320.065	6.75	
320.862	-1.25	
321.658	-2.25	
322.455	1.75	
323.251	0.75	
324.047	-2.25	
324.844	2.75	
325.64	1.75	
326.436	4.75	
327.232	-2.25	
328.028	-0.25	
328.824	1.75	
329.62	-4.25	
330.415	-0.25	
331.211	-0.25	
332.006	-0.25	
332.802	2.75	
333.597	-9.25	
334.392	4.75	
335.187	5.75	
335.982	-1.25	
336.777	-1.25	
337.572	-0.25	
338.367	1.75	
339.162	5.75	
339.956	-2.25	
340.751	3.75	
341.545	-2.25	
342.34	-2.25	
343.134	1.75	
343.928	-2.25	
344.722	-1.25	
345.516	-2.25	
346.31	-1.25	
347.104	2.75	
347.898	-2.25	
348.691	3.75	
349.485	-2.25	
350.278	3.75	
351.072	0.75	
351.865	-47.25	
352.658	6.75	
353.452	8.75	
354.245	3.75	
355.038	7.75	
355.83	5.75	
356.623	8.75	
357.416	5.75	
358.209	4.75	
359.001	5.75	
359.794	7.75	
360.586	11.75	
361.378	12.75	
362.17	12.75	
362.963	13.75	
363.755	14.75	
364.546	18.75	
365.338	17.75	
366.13	15.75	
366.922	17.75	
367.713	22.75	
368.505	19.75	
369.296	19.75	
370.088	22.75	
370.879	22.75	
371.67	26.75	
372.461	16.75	
373.252	33.75	
374.043	49.75	
374.834	96.75	
375.625	161.75	
376.415	254.75	
377.206	382.75	
377.996	529.75	
378.787	721.75	
379.577	898.75	
380.367	1075.75	
381.157	1236.75	
381.947	1332.75	
382.737	1368.75	
383.527	1336.75	
384.317	1199.75	
385.107	1042.75	
385.896	789.75	
386.686	555.75	
387.475	339.75	
388.265	173.75	
389.054	80.75	
389.843	45.75	
390.632	30.75	
391.421	32.75	
392.21	26.75	
392.999	23.75	
393.788	18.75	
394.576	18.75	
395.365	20.75	
396.154	16.75	
396.942	14.75	
397.73	15.75	
398.519	13.75	
399.307	19.75	
400.095	18.75	
400.883	20.75	
401.671	18.75	
402.459	14.75	
403.246	15.75	
404.034	14.75	
404.822	13.75	
405.609	15.75	
406.396	11.75	
407.184	17.75	
407.971	13.75	
408.758	9.75	
409.545	16.75	
410.332	12.75	
411.119	14.75	
411.906	14.75	
412.693	11.75	
413.479	19.75	
414.266	12.75	
415.052	14.75	
415.839	13.75	
416.625	12.75	
417.411	13.75	
418.197	12.75	
418.983	13.75	
419.769	14.75	
420.555	17.75	
421.341	18.75	
422.127	17.75	
422.912	11.75	
423.698	15.75	
424.483	9.75	
425.269	8.75	
426.054	12.75	
426.839	3.75	
427.624	10.75	
428.409	6.75	
429.194	8.75	
429.979	17.75	
430.764	11.75	
431.549	13.75	
432.333	12.75	
433.118	10.75	
433.902	13.75	
434.687	9.75	
435.471	10.75	
436.255	7.75	
437.039	10.75	
437.823	14.75	
438.607	9.75	
439.391	10.75	
440.175	11.75	
440.958	8.75	
441.742	10.75	
442.526	19.75	
443.309	6.75	
444.092	17.75	
444.876	17.75	
445.659	9.75	
446.442	13.75	
447.225	8.75	
448.008	18.75	
448.791	15.75	
449.573	19.75	
450.356	20.75	
451.139	7.75	
451.921	16.75	
452.704	12.75	
453.486	16.75	
454.268	16.75	
455.05	13.75	
455.833	19.75	
456.615	17.75	
457.396	17.75	
458.178	19.75	
458.96	12.75	
459.742	22.75	
460.523	18.75	
461.305	14.75	
462.086	24.75	
462.868	12.75	
463.649	19.75	
464.43	16.75	
465.211	22.75	
465.992	23.75	
466.773	25.75	
467.554	20.75	
468.335	27.75	
469.115	20.75	
469.896	22.75	
470.676	24.75	
471.457	17.75	
472.237	23.75	
473.018	20.75	
473.798	16.75	
474.578	28.75	
475.358	19.75	
476.138	21.75	
476.918	11.75	
477.697	18.75	
478.477	10.75	
479.257	22.75	
480.036	25.75	
480.816	18.75	
481.595	24.75	
482.374	22.75	
483.153	23.75	
483.932	20.75	
484.711	21.75	
485.49	15.75	
486.269	21.75	
487.048	21.75	
487.827	14.75	
488.605	13.75	
489.384	16.75	
490.162	23.75	
490.941	13.75	
491.719	17.75	
492.497	18.75	
493.275	16.75	
494.053	22.75	
494.831	17.75	
495.609	20.75	
496.387	17.75	
497.164	19.75	
497.942	21.75	
498.72	10.75	
499.497	16.75	
500.274	17.75	
501.052	16.75	
501.829	22.75	
502.606	19.75	
503.383	18.75	
504.16	28.75	
504.937	13.75	
505.714	27.75	
506.49	19.75	
507.267	19.75	
508.043	15.75	
508.82	19.75	
509.596	17.75	
510.373	21.75	
511.149	19.75	
511.925	26.75	
512.701	23.75	
513.477	22.75	
514.253	28.75	
515.029	25.75	
515.804	26.75	
516.58	20.75	
517.356	24.75	
518.131	26.75	
518.906	20.75	
519.682	28.75	
520.457	26.75	
521.232	29.75	
522.007	28.75	
522.782	27.75	
523.557	28.75	
524.332	30.75	
525.107	32.75	
525.881	31.75	
526.656	29.75	
527.43	39.75	
528.205	34.75	
528.979	26.75	
529.753	36.75	
530.527	35.75	
531.302	38.75	
532.076	40.75	
532.849	32.75	
533.623	41.75	
534.397	34.75	
535.171	37.75	
535.944	34.75	
536.718	33.75	
537.491	32.75	
538.265	34.75	
539.038	30.75	
539.811	37.75	
540.584	33.75	
541.357	33.75	
542.13	38.75	
542.903	39.75	
543.676	34.75	
544.449	34.75	
545.221	39.75	
545.994	37.75	
546.766	38.75	
547.539	45.75	
548.311	31.75	
549.083	35.75	
549.855	41.75	
550.627	39.75	
551.399	36.75	
552.171	40.75	
552.943	35.75	
553.715	46.75	
554.486	33.75	
555.258	48.75	
556.029	41.75	
556.801	37.75	
557.572	41.75	
558.343	42.75	
559.114	48.75	
559.886	39.75	
560.657	42.75	
561.427	43.75	
562.198	41.75	
562.969	41.75	
563.74	43.75	
564.51	38.75	
565.281	44.75	
566.051	41.75	
566.822	41.75	
567.592	47.75	
568.362	42.75	
569.132	46.75	
569.902	41.75	
570.672	42.75	
571.442	48.75	
572.212	37.75	
572.982	40.75	
573.751	44.75	
574.521	35.75	
575.29	47.75	
576.06	35.75	
576.829	43.75	
577.598	40.75	
578.367	36.75	
579.136	39.75	
579.905	42.75	
580.674	32.75	
581.443	40.75	
582.212	39.75	
582.981	37.75	
583.749	43.75	
584.518	41.75	
585.286	44.75	
586.054	38.75	
586.823	44.75	
587.591	43.75	
588.359	41.75	
589.127	49.75	
589.895	31.75	
590.663	40.75	
591.431	42.75	
592.198	41.75	
592.966	46.75	
593.734	42.75	
594.501	42.75	
595.268	51.75	
596.036	37.75	
596.803	39.75	
597.57	38.75	
598.337	41.75	
599.104	44.75	
599.871	40.75	
600.638	43.75	
601.405	43.75	
602.171	38.75	
602.938	40.75	
603.704	45.75	
604.471	36.75	
605.237	44.75	
606.004	41.75	
606.77	40.75	
607.536	42.75	
608.302	39.75	
609.068	40.75	
609.834	34.75	
610.599	38.75	
611.365	42.75	
612.131	38.75	
612.896	38.75	
613.662	39.75	
614.427	37.75	
615.193	43.75	
615.958	41.75	
616.723	40.75	
617.488	41.75	
618.253	41.75	
619.018	40.75	
619.783	34.75	
620.548	50.75	
621.312	46.75	
622.077	43.75	
622.842	46.75	
623.606	34.75	
624.37	39.75	
625.135	36.75	
625.899	41.75	
626.663	50.75	
627.427	42.75	
628.191	46.75	
628.955	46.75	
629.719	41.75	
630.483	50.75	
631.246	44.75	
632.01	47.75	
632.773	41.75	
633.537	46.75	
634.3	43.75	
635.063	44.75	
635.827	37.75	
636.59	45.75	
637.353	39.75	
638.116	45.75	
638.879	46.75	
639.641	44.75	
640.404	43.75	
641.167	39.75	
641.929	45.75	
642.692	41.75	
643.454	36.75	
644.216	37.75	
644.979	38.75	
645.741	46.75	
646.503	37.75	
647.265	41.75	
648.027	45.75	
648.789	40.75	
649.551	40.75	
650.312	37.75	
651.074	40.75	
651.835	48.75	
652.597	34.75	
653.358	43.75	
654.12	35.75	
654.881	42.75	
655.642	40.75	
656.403	36.75	
657.164	44.75	
657.925	49.75	
658.686	43.75	
659.447	45.75	
660.207	43.75	
660.968	50.75	
661.728	54.75	
662.489	51.75	
663.249	45.75	
664.01	50.75	
664.77	48.75	
665.53	57.75	
666.29	49.75	
667.05	50.75	
667.81	47.75	
668.57	45.75	
669.329	53.75	
670.089	56.75	
670.849	50.75	
671.608	59.75	
672.368	51.75	
673.127	54.75	
673.886	53.75	
674.646	56.75	
675.405	56.75	
676.164	53.75	
676.923	55.75	
677.682	58.75	
678.44	57.75	
679.199	60.75	
679.958	59.75	
680.717	58.75	
681.475	56.75	
682.233	64.75	
682.992	63.75	
683.75	65.75	
684.508	60.75	
685.266	64.75	
686.024	59.75	
686.782	57.75	
687.54	58.75	
688.298	57.75	
689.056	53.75	
689.814	65.75	
690.571	60.75	
691.329	62.75	
692.086	60.75	
692.843	61.75	
693.601	62.75	
694.358	56.75	
695.115	54.75	
695.872	51.75	
696.629	59.75	
697.386	62.75	
698.143	53.75	
698.9	62.75	
699.656	59.75	
700.413	59.75	
701.169	58.75	
701.926	62.75	
702.682	62.75	
703.438	61.75	
704.195	63.75	
704.951	53.75	
705.707	51.75	
706.463	58.75	
707.219	57.75	
707.974	50.75	
708.73	55.75	
709.486	47.75	
710.241	53.75	
710.997	51.75	
711.752	46.75	
712.508	49.75	
713.263	46.75	
714.018	42.75	
714.773	43.75	
715.528	40.75	
716.283	38.75	
717.038	32.75	
717.793	37.75	
718.548	36.75	
719.303	29.75	
720.057	33.75	
720.812	32.75	
721.566	33.75	
722.321	29.75	
723.075	28.75	
723.829	30.75	
724.583	31.75	
725.337	27.75	
726.091	27.75	
726.845	24.75	
727.599	21.75	
728.353	25.75	
729.106	26.75	
729.86	26.75	
730.614	30.75	
731.367	44.75	
732.12	27.75	
732.874	27.75	
733.627	30.75	
734.38	22.75	
735.133	26.75	
735.886	21.75	
736.639	20.75	
737.392	26.75	
738.145	19.75	
738.897	14.75	
739.65	27.75	
740.403	23.75	
741.155	21.75	
741.907	29.75	
742.66	21.75	
743.412	23.75	
744.164	26.75	
744.916	23.75	
745.668	24.75	
746.42	21.75	
747.172	26.75	
747.924	20.75	
748.676	21.75	
749.427	19.75	
750.179	19.75	
750.93	26.75	
751.682	18.75	
752.433	19.75	
753.184	25.75	
753.935	20.75	
754.687	16.75	
755.438	17.75	
756.189	21.75	
756.939	20.75	
757.69	16.75	
758.441	8.75	
759.192	9.75	
759.942	13.75	
760.693	14.75	
761.443	15.75	
762.194	16.75	
762.944	24.75	
763.694	24.75	
764.444	22.75	
765.194	15.75	
765.944	14.75	
766.694	15.75	
767.444	9.75	
768.194	14.75	
768.943	11.75	
769.693	5.75	
770.443	16.75	
771.192	11.75	
771.941	11.75	
772.691	12.75	
773.44	6.75	
774.189	11.75	
774.938	1.75	
775.687	8.75	
776.436	6.75	
777.185	7.75	
777.934	6.75	
778.683	9.75	
779.431	6.75	
780.18	4.75	
780.928	4.75	
781.677	0.75	
782.425	-1.25	
783.173	4.75	
783.922	-1.25	
784.67	-2.25	
785.418	5.75	
786.166	1.75	
786.914	-2.25	
787.661	-3.25	
788.409	3.75	
789.157	2.75	
789.904	-1.25	
790.652	4.75	
791.399	6.75	
792.147	2.75	
792.894	-0.25	
793.641	3.75	
794.388	2.75	
795.136	0.75	
795.883	3.75	
796.629	3.75	
797.376	-1.25	
798.123	-2.25	
798.87	-6.25	
799.616	-2.25	
800.363	0.75	
801.109	3.75	
801.856	-0.25	
802.602	1.75	
803.349	-0.25	
804.095	7.75	
804.841	-1.25	
805.587	-1.25	
806.333	-1.25	
807.079	3.75	
807.825	-2.25	
808.57	-3.25	
809.316	-9.25	
810.062	-5.25	
810.807	6.75	
811.553	-1.25	
812.298	-0.25	
813.043	-1.25	
813.788	0.75	
814.534	9.75	
815.279	0.75	
816.024	-2.25	
816.769	-2.25	
817.514	-4.25	
818.258	6.75	
819.003	2.75	
819.748	1.75	
820.492	-4.25	
821.237	-24.25	
821.981	-3.25	
822.726	-1.25	
823.47	3.75	
824.214	6.75	
824.958	1.75	
825.702	-0.25	
826.446	-3.25	
827.19	-1.25	
827.934	0.75	
828.678	-3.25	
829.421	7.75	
830.165	-3.25	
830.909	0.75	
831.652	-3.25	
832.395	-2.25	
833.139	-2.25	
833.882	-4.25	
834.625	2.75	
835.368	2.75	
836.111	1.75	
836.854	-3.25	
837.597	-0.25	
838.34	-8.25	
839.083	-9.25	
839.825	-2.25	
840.568	-1.25	
841.311	1.75	
842.053	1.75	
842.795	4.75	
843.538	-2.25	
844.28	3.75	
845.022	5.75	
845.764	-0.25	
846.506	0.75	
847.248	-3.25	
847.99	0.75	
848.732	-5.25	
849.474	-2.25	
850.215	-0.25	
850.957	-0.25	
851.698	-4.25	
852.44	2.75	
853.181	-7.25	
853.922	0.75	
854.664	2.75	
855.405	1.75	
856.146	1.75	
856.887	-3.25	
857.628	-2.25	
858.369	3.75	
859.109	-0.25	
859.85	-1.25	
860.591	4.75	
861.331	0.75	
862.072	3.75	
862.812	-0.25	
863.553	-0.25	
864.293	-2.25	
865.033	-1.25	
865.773	-2.25	
866.513	-1.25	
867.253	-2.25	
867.993	-2.25	
868.733	2.75	
869.473	-3.25	
870.213	1.75	
870.952	3.75	
871.692	-2.25	
872.431	-0.25	
873.171	3.75	
873.91	-0.25	
874.649	6.75	
875.388	5.75	
876.128	2.75	
876.867	1.75	
877.606	-6.25	
878.345	-2.25	
879.083	-3.25	
879.822	-2.25	
880.561	-1.25	
881.299	4.75	
882.038	-4.25	
882.777	-0.25	
883.515	-3.25	
884.253	7.75	
884.992	-3.25	
885.73	0.75	
886.468	-0.25	
887.206	-4.25	
887.944	-0.25	
888.682	-0.25	
889.42	1.75	
890.157	-0.25	
890.895	-0.25	
891.633	-0.25	
892.37	1.75	
893.108	2.75	
893.845	-4.25	
894.583	5.75	
895.32	-2.25	
896.057	-0.25	
896.794	-3.25	
897.531	-4.25	
898.268	-3.25	
899.005	-0.25	
899.742	-1.25	
900.479	-2.25	
901.215	-0.25	
901.952	1.75	
902.689	3.75	
903.425	-1.25	
904.162	6.75	
904.898	7.75	
905.634	0.75	
906.37	5.75	
907.106	-5.25	
907.843	-1.25	
908.579	-4.25	
909.314	-2.25	
910.05	-3.25	
910.786	-3.25	
911.522	-2.25	
912.257	-0.25	
912.993	0.75	
913.728	2.75	
914.464	1.75	
915.199	2.75	
915.935	0.75	
916.67	-2.25	
917.405	-3.25	
918.14	0.75	
918.875	-2.25	
919.61	1.75	
920.345	-2.25	
921.08	2.75	
921.814	1.75	
922.549	4.75	
923.284	0.75	
924.018	-0.25	
924.752	4.75	
925.487	-3.25	
926.221	-3.25	
926.955	-0.25	
927.69	-3.25	
928.424	6.75	
929.158	-1.25	
929.892	-3.25	
930.625	-2.25	
931.359	1.75	
932.093	0.75	
932.827	-1.25	
933.56	-5.25	
934.294	-0.25	
935.027	-4.25	
935.761	-1.25	
936.494	-0.25	
937.227	-6.25	
937.96	-2.25	
938.693	-0.25	
939.426	0.75	
940.159	4.75	
940.892	2.75	
941.625	-0.25	
942.358	1.75	
943.091	2.75	
943.823	-1.25	
944.556	-4.25	
945.288	1.75	
946.021	1.75	
946.753	-4.25	
947.485	0.75	
948.217	1.75	
948.95	2.75	
949.682	-3.25	
950.414	3.75	
951.146	2.75	
951.877	-4.25	
952.609	1.75	
953.341	0.75	
954.073	-0.25	
954.804	1.75	
955.536	-2.25	
956.267	2.75	
956.998	-3.25	
957.73	0.75	
958.461	4.75	
959.192	-9.25	
959.923	3.75	
960.654	1.75	
961.385	5.75	
962.116	1.75	
962.847	0.75	
963.578	-0.25	
964.308	2.75	
965.039	-0.25	
965.769	1.75	
966.5	-1.25	
967.23	2.75	
967.961	1.75	
968.691	3.75	
969.421	1.75	
970.151	2.75	
970.881	1.75	
971.611	2.75	
972.341	-1.25	
973.071	-1.25	
973.801	-0.25	
974.53	1.75	
975.26	4.75	
975.99	-7.25	
976.719	2.75	
977.448	-1.25	
978.178	-2.25	
978.907	3.75	
979.636	-0.25	
980.365	3.75	
981.095	0.75	
981.824	1.75	
982.553	4.75	
983.281	5.75	
984.01	-0.25	
984.739	-0.25	
985.468	-1.25	
986.196	1.75	
986.925	-5.25	
987.653	-1.25	
988.382	-1.25	
989.11	-0.25	
989.838	8.75	
990.566	4.75	
991.295	-3.25	
992.023	-5.25	
992.751	-0.25	
993.478	0.75	
994.206	-0.25	
994.934	-2.25	
995.662	-1.25	
996.389	-0.25	
997.117	-1.25	
997.845	2.75	

