197.938	0	
198.749	6	
199.559	-10	
200.369	2	
201.179	-2	
201.988	0	
202.798	2	
203.608	-3	
204.417	1	
205.227	-3	
206.036	-2	
206.846	2	
207.655	-6	
208.464	-4	
209.273	-2	
210.082	-4	
210.891	2	
211.7	-3	
212.508	1	
213.317	0	
214.125	-2	
214.934	1	
215.742	-5	
216.55	-3	
217.359	-1	
218.167	-4	
218.975	2	
219.782	5	
220.59	-3	
221.398	6	
222.206	-1	
223.013	-5	
223.82	-3	
224.628	-2	
225.435	-3	
226.242	-8	
227.049	3	
227.856	3	
228.663	0	
229.47	-1	
230.277	0	
231.083	0	
231.89	2	
232.696	4	
233.502	5	
234.309	-7	
235.115	-3	
235.921	0	
236.727	1	
237.533	-5	
238.339	5	
239.144	0	
239.95	0	
240.756	3	
241.561	6	
242.366	1	
243.172	-5	
243.977	5	
244.782	-7	
245.587	-5	
246.392	2	
247.197	-9	
248.001	-2	
248.806	1	
249.611	-7	
250.415	3	
251.219	3	
252.024	4	
252.828	3	
253.632	3	
254.436	0	
255.24	1	
256.044	-2	
256.848	-2	
257.651	-7	
258.455	-2	
259.258	-6	
260.062	-101	
260.865	7	
261.668	1	
262.471	3	
263.274	0	
264.077	2	
264.88	1	
265.683	-1	
266.486	-2	
267.288	1	
268.091	-11	
268.893	3	
269.696	-8	
270.498	-4	
271.3	3	
272.102	-8	
272.904	4	
273.706	-2	
274.508	-3	
275.309	1	
276.111	-3	
276.913	-7	
277.714	-1	
278.515	-2	
279.317	-2	
280.118	0	
280.919	-3	
281.72	2	
282.521	-1	
283.322	5	
284.122	0	
284.923	1	
285.724	2	
286.524	-3	
287.325	-1	
288.125	-6	
288.925	0	
289.725	-6	
290.525	-5	
291.325	-3	
292.125	-4	
292.925	-2	
293.724	0	
294.524	-8	
295.324	2	
296.123	5	
296.922	-1	
297.722	6	
298.521	1	
299.32	0	
300.119	-2	
300.918	-5	
301.716	-2	
302.515	-1	
303.314	1	
304.112	5	
304.911	0	
305.709	5	
306.507	1	
307.306	1	
308.104	-3	
308.902	-2	
309.7	-2	
310.498	-3	
311.295	0	
312.093	0	
312.891	-7	
313.688	-1	
314.485	0	
315.283	-1	
316.08	8	
316.877	-3	
317.674	-3	
318.471	3	
319.268	-3	
320.065	2	
320.862	-4	
321.658	-1	
322.455	1	
323.251	-6	
324.047	3	
324.844	-4	
325.64	2	
326.436	-2	
327.232	-7	
328.028	3	
328.824	-2	
329.62	-1	
330.415	-2	
331.211	-1	
332.006	1	
332.802	1	
333.597	-2	
334.392	1	
335.187	-4	
335.982	1	
336.777	-3	
337.572	-2	
338.367	3	
339.162	1	
339.956	5	
340.751	-2	
341.545	-5	
342.34	3	
343.134	-3	
343.928	-9	
344.722	-3	
345.516	-3	
346.31	-1	
347.104	0	
347.898	-7	
348.691	8	
349.485	3	
350.278	7	
351.072	7	
351.865	-44	
352.658	9	
353.452	4	
354.245	2	
355.038	2	
355.83	4	
356.623	5	
357.416	9	
358.209	9	
359.001	10	
359.794	10	
360.586	18	
361.378	18	
362.17	13	
362.963	19	
363.755	16	
364.546	14	
365.338	17	
366.13	13	
366.922	24	
367.713	25	
368.505	23	
369.296	22	
370.088	25	
370.879	28	
371.67	33	
372.461	22	
373.252	29	
374.043	37	
374.834	61	
375.625	107	
376.415	173	
377.206	289	
377.996	431	
378.787	607	
379.577	813	
380.367	1024	
381.157	1207	
381.947	1374	
382.737	1501	
383.527	1557	
384.317	1526	
385.107	1437	
385.896	1259	
386.686	1013	
387.475	735	
388.265	462	
389.054	254	
389.843	121	
390.632	63	
391.421	46	
392.21	32	
392.999	29	
393.788	24	
394.576	23	
395.365	25	
396.154	19	
396.942	17	
397.73	13	
398.519	13	
399.307	16	
400.095	19	
400.883	22	
401.671	16	
402.459	20	
403.246	19	
404.034	11	
404.822	12	
405.609	17	
406.396	15	
407.184	11	
407.971	13	
408.758	10	
409.545	16	
410.332	12	
411.119	15	
411.906	18	
412.693	9	
413.479	19	
414.266	15	
415.052	13	
415.839	12	
416.625	12	
417.411	9	
418.197	8	
418.983	14	
419.769	14	
420.555	17	
421.341	10	
422.127	18	
422.912	9	
423.698	14	
424.483	13	
425.269	11	
426.054	9	
426.839	8	
427.624	12	
428.409	8	
429.194	2	
429.979	10	
430.764	8	
431.549	9	
432.333	13	
433.118	9	
433.902	15	
434.687	10	
435.471	10	
436.255	12	
437.039	14	
437.823	16	
438.607	10	
439.391	7	
440.175	7	
440.958	7	
441.742	9	
442.526	12	
443.309	7	
444.092	10	
444.876	15	
445.659	13	
446.442	9	
447.225	8	
448.008	14	
448.791	12	
449.573	17	
450.356	16	
451.139	11	
451.921	19	
452.704	14	
453.486	13	
454.268	16	
455.05	13	
455.833	20	
456.615	14	
457.396	19	
458.178	17	
458.96	14	
459.742	16	
460.523	19	
461.305	17	
462.086	17	
462.868	11	
463.649	20	
464.43	16	
465.211	21	
465.992	26	
466.773	23	
467.554	25	
468.335	25	
469.115	22	
469.896	20	
470.676	21	
471.457	12	
472.237	23	
473.018	21	
473.798	16	
474.578	21	
475.358	15	
476.138	16	
476.918	14	
477.697	15	
478.477	15	
479.257	23	
480.036	26	
480.816	17	
481.595	26	
482.374	17	
483.153	20	
483.932	22	
484.711	16	
485.49	14	
486.269	18	
487.048	16	
487.827	19	
488.605	13	
489.384	17	
490.162	21	
490.941	13	
491.719	20	
492.497	16	
493.275	16	
494.053	20	
494.831	14	
495.609	21	
496.387	20	
497.164	19	
497.942	23	
498.72	15	
499.497	14	
500.274	21	
501.052	13	
501.829	14	
502.606	19	
503.383	15	
504.16	17	
504.937	17	
505.714	23	
506.49	17	
507.267	22	
508.043	21	
508.82	12	
509.596	18	
510.373	24	
511.149	12	
511.925	24	
512.701	18	
513.477	20	
514.253	24	
515.029	21	
515.804	22	
516.58	18	
517.356	23	
518.131	30	
518.906	23	
519.682	34	
520.457	28	
521.232	29	
522.007	24	
522.782	24	
523.557	28	
524.332	25	
525.107	24	
525.881	30	
526.656	31	
527.43	34	
528.205	34	
528.979	31	
529.753	33	
530.527	35	
531.302	38	
532.076	35	
532.849	30	
533.623	38	
534.397	37	
535.171	31	
535.944	33	
536.718	26	
537.491	35	
538.265	30	
539.038	33	
539.811	33	
540.584	31	
541.357	30	
542.13	35	
542.903	30	
543.676	36	
544.449	34	
545.221	32	
545.994	34	
546.766	36	
547.539	39	
548.311	35	
549.083	31	
549.855	37	
550.627	31	
551.399	39	
552.171	40	
552.943	34	
553.715	47	
554.486	35	
555.258	38	
556.029	43	
556.801	36	
557.572	40	
558.343	35	
559.114	43	
559.886	44	
560.657	46	
561.427	46	
562.198	42	
562.969	43	
563.74	44	
564.51	35	
565.281	42	
566.051	41	
566.822	39	
567.592	47	
568.362	33	
569.132	39	
569.902	42	
570.672	46	
571.442	42	
572.212	39	
572.982	43	
573.751	44	
574.521	38	
575.29	40	
576.06	37	
576.829	45	
577.598	34	
578.367	35	
579.136	41	
579.905	36	
580.674	39	
581.443	47	
582.212	39	
582.981	38	
583.749	46	
584.518	34	
585.286	37	
586.054	38	
586.823	41	
587.591	45	
588.359	40	
589.127	44	
589.895	36	
590.663	38	
591.431	36	
592.198	39	
592.966	48	
593.734	41	
594.501	43	
595.268	43	
596.036	39	
596.803	47	
597.57	40	
598.337	37	
599.104	46	
599.871	42	
600.638	42	
601.405	38	
602.171	43	
602.938	44	
603.704	40	
604.471	36	
605.237	39	
606.004	34	
606.77	40	
607.536	35	
608.302	35	
609.068	34	
609.834	36	
610.599	37	
611.365	37	
612.131	33	
612.896	42	
613.662	39	
614.427	34	
615.193	35	
615.958	40	
616.723	37	
617.488	35	
618.253	38	
619.018	44	
619.783	36	
620.548	43	
621.312	44	
622.077	40	
622.842	45	
623.606	41	
624.37	39	
625.135	41	
625.899	39	
626.663	46	
627.427	39	
628.191	37	
628.955	44	
629.719	41	
630.483	43	
631.246	43	
632.01	44	
632.773	50	
633.537	42	
634.3	38	
635.063	37	
635.827	36	
636.59	42	
637.353	39	
638.116	43	
638.879	38	
639.641	41	
640.404	38	
641.167	42	
641.929	39	
642.692	41	
643.454	41	
644.216	41	
644.979	36	
645.741	42	
646.503	41	
647.265	37	
648.027	44	
648.789	38	
649.551	38	
650.312	37	
651.074	41	
651.835	42	
652.597	34	
653.358	42	
654.12	43	
654.881	43	
655.642	41	
656.403	39	
657.164	36	
657.925	45	
658.686	34	
659.447	40	
660.207	39	
660.968	47	
661.728	49	
662.489	49	
663.249	47	
664.01	49	
664.77	45	
665.53	49	
666.29	53	
667.05	50	
667.81	44	
668.57	42	
669.329	47	
670.089	54	
670.849	50	
671.608	56	
672.368	49	
673.127	53	
673.886	60	
674.646	49	
675.405	54	
676.164	51	
676.923	47	
677.682	57	
678.44	55	
679.199	51	
679.958	53	
680.717	63	
681.475	56	
682.233	59	
682.992	62	
683.75	62	
684.508	61	
685.266	66	
686.024	62	
686.782	59	
687.54	57	
688.298	56	
689.056	55	
689.814	59	
690.571	55	
691.329	60	
692.086	58	
692.843	64	
693.601	71	
694.358	52	
695.115	59	
695.872	45	
696.629	55	
697.386	58	
698.143	49	
698.9	57	
699.656	56	
700.413	55	
701.169	56	
701.926	58	
702.682	61	
703.438	59	
704.195	60	
704.951	55	
705.707	51	
706.463	55	
707.219	53	
707.974	50	
708.73	51	
709.486	44	
710.241	48	
710.997	51	
711.752	43	
712.508	49	
713.263	45	
714.018	40	
714.773	37	
715.528	40	
716.283	40	
717.038	30	
717.793	34	
718.548	35	
719.303	29	
720.057	33	
720.812	34	
721.566	28	
722.321	30	
723.075	22	
723.829	27	
724.583	29	
725.337	29	
726.091	29	
726.845	17	
727.599	22	
728.353	23	
729.106	27	
729.86	24	
730.614	29	
731.367	34	
732.12	25	
732.874	28	
733.627	30	
734.38	23	
735.133	22	
735.886	27	
736.639	11	
737.392	17	
738.145	18	
738.897	17	
739.65	25	
740.403	20	
741.155	18	
741.907	20	
742.66	23	
743.412	25	
744.164	28	
744.916	24	
745.668	20	
746.42	25	
747.172	27	
747.924	21	
748.676	23	
749.427	18	
750.179	18	
750.93	22	
751.682	20	
752.433	19	
753.184	24	
753.935	16	
754.687	19	
755.438	19	
756.189	14	
756.939	18	
757.69	13	
758.441	17	
759.192	14	
759.942	16	
760.693	7	
761.443	11	
762.194	16	
762.944	20	
763.694	17	
764.444	29	
765.194	15	
765.944	13	
766.694	17	
767.444	8	
768.194	12	
768.943	4	
769.693	5	
770.443	12	
771.192	10	
771.941	12	
772.691	12	
773.44	9	
774.189	12	
774.938	4	
775.687	3	
776.436	7	
777.185	5	
777.934	2	
778.683	4	
779.431	2	
780.18	-2	
780.928	1	
781.677	4	
782.425	-2	
783.173	5	
783.922	-1	
784.67	-4	
785.418	7	
786.166	8	
786.914	-3	
787.661	-5	
788.409	3	
789.157	0	
789.904	1	
790.652	-5	
791.399	6	
792.147	1	
792.894	2	
793.641	-3	
794.388	-22	
795.136	2	
795.883	5	
796.629	1	
797.376	1	
798.123	-3	
798.87	-1	
799.616	0	
800.363	1	
801.109	-4	
801.856	-3	
802.602	-1	
803.349	0	
804.095	6	
804.841	3	
805.587	2	
806.333	-1	
807.079	2	
807.825	-2	
808.57	-5	
809.316	-5	
810.062	-6	
810.807	3	
811.553	-9	
812.298	-2	
813.043	2	
813.788	0	
814.534	11	
815.279	-1	
816.024	-3	
816.769	2	
817.514	0	
818.258	4	
819.003	-5	
819.748	2	
820.492	-3	
821.237	-25	
821.981	0	
822.726	-6	
823.47	0	
824.214	10	
824.958	-1	
825.702	-2	
826.446	-3	
827.19	0	
827.934	3	
828.678	-2	
829.421	-1	
830.165	4	
830.909	-7	
831.652	-1	
832.395	-3	
833.139	-3	
833.882	-1	
834.625	-4	
835.368	-3	
836.111	-1	
836.854	-4	
837.597	1	
838.34	-4	
839.083	-8	
839.825	-4	
840.568	2	
841.311	-8	
842.053	0	
842.795	2	
843.538	1	
844.28	6	
845.022	5	
845.764	-1	
846.506	5	
847.248	3	
847.99	-2	
848.732	-2	
849.474	0	
850.215	-5	
850.957	1	
851.698	-7	
852.44	3	
853.181	-5	
853.922	0	
854.664	1	
855.405	3	
856.146	-1	
856.887	0	
857.628	-6	
858.369	0	
859.109	-4	
859.85	-5	
860.591	1	
861.331	1	
862.072	0	
862.812	5	
863.553	-3	
864.293	0	
865.033	-3	
865.773	2	
866.513	-1	
867.253	0	
867.993	-4	
868.733	-1	
869.473	-5	
870.213	-3	
870.952	-3	
871.692	3	
872.431	-10	
873.171	-2	
873.91	1	
874.649	2	
875.388	4	
876.128	0	
876.867	-3	
877.606	3	
878.345	-2	
879.083	-3	
879.822	-3	
880.561	-9	
881.299	2	
882.038	-2	
882.777	-3	
883.515	-3	
884.253	-19	
884.992	1	
885.73	0	
886.468	0	
887.206	-1	
887.944	-1	
888.682	-2	
889.42	4	
890.157	-2	
890.895	-1	
891.633	-7	
892.37	2	
893.108	0	
893.845	-4	
894.583	6	
895.32	-1	
896.057	-1	
896.794	2	
897.531	-4	
898.268	-2	
899.005	-5	
899.742	-3	
900.479	-3	
901.215	-2	
901.952	-2	
902.689	5	
903.425	6	
904.162	10	
904.898	4	
905.634	1	
906.37	-2	
907.106	-2	
907.843	1	
908.579	-4	
909.314	-2	
910.05	0	
910.786	-7	
911.522	-1	
912.257	-5	
912.993	0	
913.728	1	
914.464	1	
915.199	4	
915.935	3	
916.67	-2	
917.405	5	
918.14	0	
918.875	-1	
919.61	-4	
920.345	-4	
921.08	3	
921.814	-3	
922.549	-5	
923.284	0	
924.018	-4	
924.752	6	
925.487	-3	
926.221	-5	
926.955	0	
927.69	-5	
928.424	1	
929.158	1	
929.892	-2	
930.625	1	
931.359	-5	
932.093	4	
932.827	-1	
933.56	-5	
934.294	3	
935.027	-3	
935.761	2	
936.494	2	
937.227	-6	
937.96	-2	
938.693	-2	
939.426	-1	
940.159	3	
940.892	0	
941.625	3	
942.358	0	
943.091	0	
943.823	3	
944.556	3	
945.288	1	
946.021	1	
946.753	-3	
947.485	-3	
948.217	-2	
948.95	-4	
949.682	-7	
950.414	1	
951.146	0	
951.877	-5	
952.609	2	
953.341	-1	
954.073	0	
954.804	1	
955.536	-2	
956.267	-1	
956.998	-2	
957.73	-4	
958.461	3	
959.192	-8	
959.923	2	
960.654	4	
961.385	-2	
962.116	2	
962.847	1	
963.578	-3	
964.308	2	
965.039	-4	
965.769	0	
966.5	-1	
967.23	0	
967.961	4	
968.691	-3	
969.421	-2	
970.151	1	
970.881	0	
971.611	1	
972.341	-4	
973.071	-3	
973.801	2	
974.53	3	
975.26	-1	
975.99	-6	
976.719	3	
977.448	-1	
978.178	-3	
978.907	6	
979.636	1	
980.365	-2	
981.095	3	
981.824	-1	
982.553	-3	
983.281	4	
984.01	0	
984.739	-4	
985.468	1	
986.196	1	
986.925	-5	
987.653	1	
988.382	-7	
989.11	2	
989.838	8	
990.566	3	
991.295	-6	
992.023	0	
992.751	-1	
993.478	-1	
994.206	2	
994.934	-3	
995.662	0	
996.389	-1	
997.117	-1	
997.845	4	

