197.938	6.25	
198.749	3.25	
199.559	-3.75	
200.369	3.25	
201.179	4.25	
201.988	3.25	
202.798	5.25	
203.608	-0.75	
204.417	4.25	
205.227	-3.75	
206.036	-4.75	
206.846	-0.75	
207.655	-5.75	
208.464	3.25	
209.273	-2.75	
210.082	-4.75	
210.891	-3.75	
211.7	-0.75	
212.508	-1.75	
213.317	-0.75	
214.125	-2.75	
214.934	-0.75	
215.742	1.25	
216.55	-0.75	
217.359	-1.75	
218.167	0.25	
218.975	0.25	
219.782	-2.75	
220.59	-4.75	
221.398	-1.75	
222.206	-4.75	
223.013	-1.75	
223.82	0.25	
224.628	0.25	
225.435	-0.75	
226.242	0.25	
227.049	2.25	
227.856	-0.75	
228.663	-1.75	
229.47	-3.75	
230.277	-4.75	
231.083	-0.75	
231.89	2.25	
232.696	1.25	
233.502	2.25	
234.309	-7.75	
235.115	-2.75	
235.921	-1.75	
236.727	1.25	
237.533	-1.75	
238.339	2.25	
239.144	1.25	
239.95	-0.75	
240.756	1.25	
241.561	6.25	
242.366	-0.75	
243.172	-2.75	
243.977	3.25	
244.782	-5.75	
245.587	2.25	
246.392	0.25	
247.197	-4.75	
248.001	4.25	
248.806	2.25	
249.611	-2.75	
250.415	1.25	
251.219	4.25	
252.024	2.25	
252.828	-0.75	
253.632	1.25	
254.436	2.25	
255.24	5.25	
256.044	0.25	
256.848	1.25	
257.651	-5.75	
258.455	-1.75	
259.258	-0.75	
260.062	180.25	
260.865	5.25	
261.668	-0.75	
262.471	2.25	
263.274	0.25	
264.077	0.25	
264.88	-1.75	
265.683	4.25	
266.486	0.25	
267.288	-0.75	
268.091	-3.75	
268.893	1.25	
269.696	-2.75	
270.498	-2.75	
271.3	0.25	
272.102	-5.75	
272.904	2.25	
273.706	-2.75	
274.508	2.25	
275.309	-0.75	
276.111	1.25	
276.913	-0.75	
277.714	-0.75	
278.515	2.25	
279.317	2.25	
280.118	-2.75	
280.919	1.25	
281.72	-0.75	
282.521	-6.75	
283.322	-0.75	
284.122	-3.75	
284.923	-0.75	
285.724	-2.75	
286.524	-3.75	
287.325	-4.75	
288.125	2.25	
288.925	7.25	
289.725	-7.75	
290.525	0.25	
291.325	3.25	
292.125	-5.75	
292.925	-13.75	
293.724	-3.75	
294.524	-2.75	
295.324	1.25	
296.123	1.25	
296.922	-7.75	
297.722	-0.75	
298.521	-0.75	
299.32	-1.75	
300.119	-6.75	
300.918	-0.75	
301.716	-0.75	
302.515	2.25	
303.314	10.25	
304.112	3.25	
304.911	0.25	
305.709	0.25	
306.507	-1.75	
307.306	-0.75	
308.104	-3.75	
308.902	-0.75	
309.7	1.25	
310.498	-4.75	
311.295	-0.75	
312.093	2.25	
312.891	0.25	
313.688	0.25	
314.485	-1.75	
315.283	1.25	
316.08	6.25	
316.877	-5.75	
317.674	-4.75	
318.471	-0.75	
319.268	-0.75	
320.065	-2.75	
320.862	0.25	
321.658	1.25	
322.455	1.25	
323.251	-2.75	
324.047	0.25	
324.844	-3.75	
325.64	3.25	
326.436	1.25	
327.232	-5.75	
328.028	-0.75	
328.824	0.25	
329.62	2.25	
330.415	1.25	
331.211	1.25	
332.006	0.25	
332.802	4.25	
333.597	-6.75	
334.392	2.25	
335.187	-0.75	
335.982	3.25	
336.777	-1.75	
337.572	-3.75	
338.367	-1.75	
339.162	1.25	
339.956	0.25	
340.751	2.25	
341.545	-1.75	
342.34	0.25	
343.134	1.25	
343.928	-7.75	
344.722	1.25	
345.516	-2.75	
346.31	-1.75	
347.104	-0.75	
347.898	-2.75	
348.691	4.25	
349.485	1.25	
350.278	5.25	
351.072	-3.75	
351.865	-31.75	
352.658	4.25	
353.452	7.25	
354.245	7.25	
355.038	4.25	
355.83	11.25	
356.623	8.25	
357.416	5.25	
358.209	3.25	
359.001	7.25	
359.794	5.25	
360.586	12.25	
361.378	15.25	
362.17	14.25	
362.963	13.25	
363.755	15.25	
364.546	20.25	
365.338	19.25	
366.13	15.25	
366.922	23.25	
367.713	26.25	
368.505	23.25	
369.296	23.25	
370.088	28.25	
370.879	32.25	
371.67	30.25	
372.461	30.25	
373.252	32.25	
374.043	34.25	
374.834	55.25	
375.625	84.25	
376.415	135.25	
377.206	238.25	
377.996	371.25	
378.787	542.25	
379.577	774.25	
380.367	1014.25	
381.157	1250.25	
381.947	1463.25	
382.737	1661.25	
383.527	1780.25	
384.317	1836.25	
385.107	1818.25	
385.896	1705.25	
386.686	1480.25	
387.475	1202.25	
388.265	856.25	
389.054	539.25	
389.843	309.25	
390.632	151.25	
391.421	70.25	
392.21	41.25	
392.999	38.25	
393.788	30.25	
394.576	27.25	
395.365	29.25	
396.154	23.25	
396.942	19.25	
397.73	15.25	
398.519	16.25	
399.307	19.25	
400.095	17.25	
400.883	21.25	
401.671	19.25	
402.459	14.25	
403.246	21.25	
404.034	11.25	
404.822	12.25	
405.609	17.25	
406.396	14.25	
407.184	18.25	
407.971	13.25	
408.758	10.25	
409.545	21.25	
410.332	9.25	
411.119	13.25	
411.906	15.25	
412.693	13.25	
413.479	16.25	
414.266	18.25	
415.052	15.25	
415.839	9.25	
416.625	14.25	
417.411	17.25	
418.197	13.25	
418.983	12.25	
419.769	14.25	
420.555	16.25	
421.341	9.25	
422.127	17.25	
422.912	15.25	
423.698	13.25	
424.483	10.25	
425.269	10.25	
426.054	11.25	
426.839	9.25	
427.624	9.25	
428.409	5.25	
429.194	8.25	
429.979	14.25	
430.764	8.25	
431.549	8.25	
432.333	11.25	
433.118	9.25	
433.902	12.25	
434.687	13.25	
435.471	11.25	
436.255	18.25	
437.039	7.25	
437.823	15.25	
438.607	14.25	
439.391	14.25	
440.175	11.25	
440.958	9.25	
441.742	12.25	
442.526	15.25	
443.309	9.25	
444.092	14.25	
444.876	15.25	
445.659	16.25	
446.442	11.25	
447.225	10.25	
448.008	15.25	
448.791	13.25	
449.573	19.25	
450.356	18.25	
451.139	8.25	
451.921	18.25	
452.704	13.25	
453.486	12.25	
454.268	14.25	
455.05	16.25	
455.833	18.25	
456.615	18.25	
457.396	25.25	
458.178	17.25	
458.96	12.25	
459.742	22.25	
460.523	20.25	
461.305	19.25	
462.086	15.25	
462.868	15.25	
463.649	23.25	
464.43	12.25	
465.211	19.25	
465.992	24.25	
466.773	21.25	
467.554	24.25	
468.335	26.25	
469.115	24.25	
469.896	16.25	
470.676	29.25	
471.457	23.25	
472.237	25.25	
473.018	18.25	
473.798	16.25	
474.578	19.25	
475.358	18.25	
476.138	15.25	
476.918	16.25	
477.697	12.25	
478.477	14.25	
479.257	21.25	
480.036	20.25	
480.816	16.25	
481.595	27.25	
482.374	18.25	
483.153	20.25	
483.932	21.25	
484.711	22.25	
485.49	11.25	
486.269	16.25	
487.048	22.25	
487.827	19.25	
488.605	13.25	
489.384	19.25	
490.162	25.25	
490.941	15.25	
491.719	18.25	
492.497	20.25	
493.275	19.25	
494.053	24.25	
494.831	14.25	
495.609	23.25	
496.387	16.25	
497.164	21.25	
497.942	17.25	
498.72	17.25	
499.497	19.25	
500.274	16.25	
501.052	14.25	
501.829	18.25	
502.606	19.25	
503.383	20.25	
504.16	20.25	
504.937	17.25	
505.714	22.25	
506.49	18.25	
507.267	18.25	
508.043	16.25	
508.82	21.25	
509.596	21.25	
510.373	26.25	
511.149	20.25	
511.925	22.25	
512.701	23.25	
513.477	23.25	
514.253	30.25	
515.029	26.25	
515.804	28.25	
516.58	19.25	
517.356	22.25	
518.131	26.25	
518.906	23.25	
519.682	30.25	
520.457	27.25	
521.232	27.25	
522.007	27.25	
522.782	27.25	
523.557	32.25	
524.332	28.25	
525.107	29.25	
525.881	28.25	
526.656	34.25	
527.43	30.25	
528.205	28.25	
528.979	30.25	
529.753	37.25	
530.527	35.25	
531.302	34.25	
532.076	37.25	
532.849	30.25	
533.623	36.25	
534.397	33.25	
535.171	36.25	
535.944	33.25	
536.718	27.25	
537.491	40.25	
538.265	29.25	
539.038	32.25	
539.811	38.25	
540.584	32.25	
541.357	35.25	
542.13	30.25	
542.903	33.25	
543.676	35.25	
544.449	34.25	
545.221	35.25	
545.994	35.25	
546.766	36.25	
547.539	46.25	
548.311	35.25	
549.083	36.25	
549.855	40.25	
550.627	35.25	
551.399	35.25	
552.171	42.25	
552.943	44.25	
553.715	47.25	
554.486	36.25	
555.258	45.25	
556.029	42.25	
556.801	34.25	
557.572	41.25	
558.343	41.25	
559.114	43.25	
559.886	38.25	
560.657	43.25	
561.427	46.25	
562.198	39.25	
562.969	38.25	
563.74	43.25	
564.51	44.25	
565.281	41.25	
566.051	41.25	
566.822	39.25	
567.592	45.25	
568.362	40.25	
569.132	41.25	
569.902	42.25	
570.672	45.25	
571.442	50.25	
572.212	40.25	
572.982	43.25	
573.751	43.25	
574.521	34.25	
575.29	45.25	
576.06	43.25	
576.829	41.25	
577.598	41.25	
578.367	39.25	
579.136	37.25	
579.905	42.25	
580.674	36.25	
581.443	39.25	
582.212	36.25	
582.981	39.25	
583.749	46.25	
584.518	40.25	
585.286	49.25	
586.054	40.25	
586.823	45.25	
587.591	46.25	
588.359	40.25	
589.127	44.25	
589.895	35.25	
590.663	43.25	
591.431	40.25	
592.198	47.25	
592.966	45.25	
593.734	42.25	
594.501	45.25	
595.268	49.25	
596.036	41.25	
596.803	47.25	
597.57	44.25	
598.337	40.25	
599.104	41.25	
599.871	42.25	
600.638	47.25	
601.405	41.25	
602.171	39.25	
602.938	44.25	
603.704	41.25	
604.471	38.25	
605.237	36.25	
606.004	38.25	
606.77	36.25	
607.536	37.25	
608.302	35.25	
609.068	34.25	
609.834	38.25	
610.599	38.25	
611.365	35.25	
612.131	35.25	
612.896	40.25	
613.662	40.25	
614.427	39.25	
615.193	44.25	
615.958	37.25	
616.723	34.25	
617.488	42.25	
618.253	45.25	
619.018	41.25	
619.783	34.25	
620.548	52.25	
621.312	45.25	
622.077	46.25	
622.842	42.25	
623.606	45.25	
624.37	44.25	
625.135	37.25	
625.899	46.25	
626.663	43.25	
627.427	46.25	
628.191	44.25	
628.955	46.25	
629.719	39.25	
630.483	47.25	
631.246	49.25	
632.01	50.25	
632.773	44.25	
633.537	42.25	
634.3	43.25	
635.063	41.25	
635.827	42.25	
636.59	39.25	
637.353	37.25	
638.116	47.25	
638.879	43.25	
639.641	39.25	
640.404	39.25	
641.167	43.25	
641.929	40.25	
642.692	44.25	
643.454	39.25	
644.216	38.25	
644.979	39.25	
645.741	44.25	
646.503	36.25	
647.265	49.25	
648.027	45.25	
648.789	41.25	
649.551	38.25	
650.312	36.25	
651.074	39.25	
651.835	46.25	
652.597	33.25	
653.358	41.25	
654.12	37.25	
654.881	45.25	
655.642	41.25	
656.403	42.25	
657.164	40.25	
657.925	44.25	
658.686	34.25	
659.447	44.25	
660.207	39.25	
660.968	48.25	
661.728	51.25	
662.489	45.25	
663.249	46.25	
664.01	42.25	
664.77	53.25	
665.53	50.25	
666.29	54.25	
667.05	53.25	
667.81	48.25	
668.57	48.25	
669.329	49.25	
670.089	54.25	
670.849	56.25	
671.608	53.25	
672.368	52.25	
673.127	57.25	
673.886	52.25	
674.646	54.25	
675.405	59.25	
676.164	49.25	
676.923	49.25	
677.682	58.25	
678.44	57.25	
679.199	62.25	
679.958	57.25	
680.717	62.25	
681.475	57.25	
682.233	61.25	
682.992	68.25	
683.75	63.25	
684.508	57.25	
685.266	61.25	
686.024	61.25	
686.782	62.25	
687.54	56.25	
688.298	58.25	
689.056	55.25	
689.814	63.25	
690.571	58.25	
691.329	56.25	
692.086	62.25	
692.843	63.25	
693.601	64.25	
694.358	60.25	
695.115	58.25	
695.872	55.25	
696.629	61.25	
697.386	61.25	
698.143	55.25	
698.9	63.25	
699.656	53.25	
700.413	62.25	
701.169	55.25	
701.926	56.25	
702.682	62.25	
703.438	58.25	
704.195	60.25	
704.951	53.25	
705.707	56.25	
706.463	55.25	
707.219	52.25	
707.974	55.25	
708.73	48.25	
709.486	52.25	
710.241	57.25	
710.997	50.25	
711.752	46.25	
712.508	48.25	
713.263	49.25	
714.018	45.25	
714.773	42.25	
715.528	33.25	
716.283	36.25	
717.038	32.25	
717.793	38.25	
718.548	40.25	
719.303	30.25	
720.057	32.25	
720.812	25.25	
721.566	28.25	
722.321	25.25	
723.075	19.25	
723.829	33.25	
724.583	30.25	
725.337	33.25	
726.091	27.25	
726.845	26.25	
727.599	24.25	
728.353	23.25	
729.106	27.25	
729.86	25.25	
730.614	30.25	
731.367	31.25	
732.12	25.25	
732.874	21.25	
733.627	28.25	
734.38	22.25	
735.133	23.25	
735.886	21.25	
736.639	18.25	
737.392	26.25	
738.145	20.25	
738.897	18.25	
739.65	29.25	
740.403	22.25	
741.155	23.25	
741.907	18.25	
742.66	25.25	
743.412	22.25	
744.164	26.25	
744.916	21.25	
745.668	20.25	
746.42	22.25	
747.172	26.25	
747.924	21.25	
748.676	21.25	
749.427	19.25	
750.179	15.25	
750.93	27.25	
751.682	22.25	
752.433	15.25	
753.184	22.25	
753.935	20.25	
754.687	18.25	
755.438	20.25	
756.189	17.25	
756.939	16.25	
757.69	15.25	
758.441	16.25	
759.192	10.25	
759.942	17.25	
760.693	14.25	
761.443	12.25	
762.194	13.25	
762.944	21.25	
763.694	20.25	
764.444	25.25	
765.194	17.25	
765.944	20.25	
766.694	17.25	
767.444	6.25	
768.194	13.25	
768.943	6.25	
769.693	12.25	
770.443	14.25	
771.192	10.25	
771.941	10.25	
772.691	6.25	
773.44	1.25	
774.189	12.25	
774.938	7.25	
775.687	7.25	
776.436	5.25	
777.185	3.25	
777.934	2.25	
778.683	3.25	
779.431	3.25	
780.18	-2.75	
780.928	-1.75	
781.677	6.25	
782.425	0.25	
783.173	7.25	
783.922	2.25	
784.67	-3.75	
785.418	0.25	
786.166	3.25	
786.914	-0.75	
787.661	-2.75	
788.409	0.25	
789.157	2.25	
789.904	4.25	
790.652	1.25	
791.399	10.25	
792.147	-1.75	
792.894	-2.75	
793.641	2.25	
794.388	-26.75	
795.136	-0.75	
795.883	4.25	
796.629	-1.75	
797.376	-1.75	
798.123	1.25	
798.87	-3.75	
799.616	3.25	
800.363	-2.75	
801.109	4.25	
801.856	-4.75	
802.602	6.25	
803.349	1.25	
804.095	3.25	
804.841	4.25	
805.587	-3.75	
806.333	-3.75	
807.079	2.25	
807.825	-1.75	
808.57	-2.75	
809.316	-8.75	
810.062	-2.75	
810.807	3.25	
811.553	-4.75	
812.298	-3.75	
813.043	-3.75	
813.788	0.25	
814.534	7.25	
815.279	-2.75	
816.024	-1.75	
816.769	-1.75	
817.514	2.25	
818.258	4.25	
819.003	3.25	
819.748	-11.75	
820.492	-2.75	
821.237	-38.75	
821.981	-5.75	
822.726	-2.75	
823.47	0.25	
824.214	6.25	
824.958	-1.75	
825.702	-0.75	
826.446	-2.75	
827.19	-5.75	
827.934	-0.75	
828.678	1.25	
829.421	0.25	
830.165	-1.75	
830.909	-1.75	
831.652	2.25	
832.395	-4.75	
833.139	-3.75	
833.882	-2.75	
834.625	0.25	
835.368	-3.75	
836.111	-0.75	
836.854	-2.75	
837.597	5.25	
838.34	-3.75	
839.083	-10.75	
839.825	-4.75	
840.568	3.25	
841.311	-0.75	
842.053	2.25	
842.795	2.25	
843.538	-1.75	
844.28	2.25	
845.022	1.25	
845.764	-0.75	
846.506	7.25	
847.248	-0.75	
847.99	0.25	
848.732	2.25	
849.474	-2.75	
850.215	-0.75	
850.957	1.25	
851.698	-2.75	
852.44	3.25	
853.181	-4.75	
853.922	-2.75	
854.664	2.25	
855.405	2.25	
856.146	0.25	
856.887	-0.75	
857.628	-4.75	
858.369	5.25	
859.109	-2.75	
859.85	0.25	
860.591	2.25	
861.331	-3.75	
862.072	3.25	
862.812	4.25	
863.553	-2.75	
864.293	-1.75	
865.033	-0.75	
865.773	0.25	
866.513	0.25	
867.253	4.25	
867.993	-5.75	
868.733	2.25	
869.473	-0.75	
870.213	-7.75	
870.952	-1.75	
871.692	5.25	
872.431	-6.75	
873.171	-5.75	
873.91	-0.75	
874.649	0.25	
875.388	5.25	
876.128	0.25	
876.867	-7.75	
877.606	0.25	
878.345	-1.75	
879.083	2.25	
879.822	-2.75	
880.561	-3.75	
881.299	3.25	
882.038	-2.75	
882.777	1.25	
883.515	-3.75	
884.253	3.25	
884.992	1.25	
885.73	-1.75	
886.468	-5.75	
887.206	-2.75	
887.944	0.25	
888.682	1.25	
889.42	4.25	
890.157	1.25	
890.895	-0.75	
891.633	-4.75	
892.37	4.25	
893.108	1.25	
893.845	-4.75	
894.583	0.25	
895.32	-4.75	
896.057	2.25	
896.794	0.25	
897.531	-1.75	
898.268	-0.75	
899.005	0.25	
899.742	-0.75	
900.479	-0.75	
901.215	1.25	
901.952	-3.75	
902.689	3.25	
903.425	-0.75	
904.162	11.25	
904.898	5.25	
905.634	5.25	
906.37	1.25	
907.106	-2.75	
907.843	4.25	
908.579	0.25	
909.314	0.25	
910.05	2.25	
910.786	1.25	
911.522	-0.75	
912.257	-5.75	
912.993	2.25	
913.728	0.25	
914.464	0.25	
915.199	2.25	
915.935	-0.75	
916.67	-1.75	
917.405	-2.75	
918.14	3.25	
918.875	1.25	
919.61	-2.75	
920.345	-3.75	
921.08	3.25	
921.814	-5.75	
922.549	0.25	
923.284	-0.75	
924.018	-2.75	
924.752	-0.75	
925.487	-2.75	
926.221	1.25	
926.955	-1.75	
927.69	-5.75	
928.424	2.25	
929.158	-1.75	
929.892	-6.75	
930.625	-2.75	
931.359	-1.75	
932.093	1.25	
932.827	-1.75	
933.56	-5.75	
934.294	1.25	
935.027	-6.75	
935.761	-0.75	
936.494	0.25	
937.227	-3.75	
937.96	-0.75	
938.693	0.25	
939.426	0.25	
940.159	4.25	
940.892	2.25	
941.625	3.25	
942.358	-1.75	
943.091	-0.75	
943.823	0.25	
944.556	1.25	
945.288	1.25	
946.021	-0.75	
946.753	-4.75	
947.485	1.25	
948.217	2.25	
948.95	4.25	
949.682	0.25	
950.414	-1.75	
951.146	4.25	
951.877	-0.75	
952.609	1.25	
953.341	1.25	
954.073	1.25	
954.804	0.25	
955.536	-2.75	
956.267	1.25	
956.998	0.25	
957.73	-3.75	
958.461	4.25	
959.192	-2.75	
959.923	0.25	
960.654	1.25	
961.385	3.25	
962.116	4.25	
962.847	-2.75	
963.578	4.25	
964.308	1.25	
965.039	-2.75	
965.769	1.25	
966.5	1.25	
967.23	3.25	
967.961	3.25	
968.691	2.25	
969.421	0.25	
970.151	3.25	
970.881	2.25	
971.611	4.25	
972.341	-1.75	
973.071	-0.75	
973.801	-2.75	
974.53	-1.75	
975.26	3.25	
975.99	-10.75	
976.719	-2.75	
977.448	-0.75	
978.178	-3.75	
978.907	2.25	
979.636	-0.75	
980.365	-0.75	
981.095	1.25	
981.824	0.25	
982.553	3.25	
983.281	5.25	
984.01	1.25	
984.739	-0.75	
985.468	4.25	
986.196	-1.75	
986.925	-8.75	
987.653	0.25	
988.382	-5.75	
989.11	3.25	
989.838	3.25	
990.566	0.25	
991.295	-3.75	
992.023	-8.75	
992.751	-3.75	
993.478	-1.75	
994.206	3.25	
994.934	-0.75	
995.662	-4.75	
996.389	-0.75	
997.117	-2.75	
997.845	5.25	

