197.938	42.75	
198.749	48.75	
199.559	48.75	
200.369	43.75	
201.179	46.75	
201.988	46.75	
202.798	52.75	
203.608	47.75	
204.417	44.75	
205.227	44.75	
206.036	50.75	
206.846	48.75	
207.655	53.75	
208.464	47.75	
209.273	48.75	
210.082	42.75	
210.891	45.75	
211.7	47.75	
212.508	40.75	
213.317	44.75	
214.125	42.75	
214.934	43.75	
215.742	43.75	
216.55	45.75	
217.359	43.75	
218.167	46.75	
218.975	49.75	
219.782	47.75	
220.59	45.75	
221.398	45.75	
222.206	56.75	
223.013	43.75	
223.82	36.75	
224.628	45.75	
225.435	43.75	
226.242	49.75	
227.049	44.75	
227.856	45.75	
228.663	50.75	
229.47	42.75	
230.277	50.75	
231.083	48.75	
231.89	42.75	
232.696	49.75	
233.502	42.75	
234.309	46.75	
235.115	50.75	
235.921	48.75	
236.727	42.75	
237.533	48.75	
238.339	51.75	
239.144	50.75	
239.95	55.75	
240.756	50.75	
241.561	49.75	
242.366	45.75	
243.172	53.75	
243.977	47.75	
244.782	47.75	
245.587	49.75	
246.392	49.75	
247.197	45.75	
248.001	47.75	
248.806	50.75	
249.611	46.75	
250.415	49.75	
251.219	45.75	
252.024	49.75	
252.828	43.75	
253.632	46.75	
254.436	45.75	
255.24	52.75	
256.044	50.75	
256.848	46.75	
257.651	41.75	
258.455	46.75	
259.258	47.75	
260.062	3421.75	
260.865	52.75	
261.668	49.75	
262.471	44.75	
263.274	49.75	
264.077	42.75	
264.88	45.75	
265.683	42.75	
266.486	44.75	
267.288	48.75	
268.091	45.75	
268.893	48.75	
269.696	50.75	
270.498	46.75	
271.3	45.75	
272.102	46.75	
272.904	45.75	
273.706	43.75	
274.508	45.75	
275.309	50.75	
276.111	47.75	
276.913	44.75	
277.714	38.75	
278.515	43.75	
279.317	50.75	
280.118	48.75	
280.919	46.75	
281.72	48.75	
282.521	47.75	
283.322	46.75	
284.122	48.75	
284.923	53.75	
285.724	44.75	
286.524	48.75	
287.325	58.75	
288.125	44.75	
288.925	46.75	
289.725	47.75	
290.525	49.75	
291.325	49.75	
292.125	49.75	
292.925	54.75	
293.724	42.75	
294.524	44.75	
295.324	41.75	
296.123	46.75	
296.922	49.75	
297.722	69.75	
298.521	49.75	
299.32	54.75	
300.119	46.75	
300.918	43.75	
301.716	60.75	
302.515	41.75	
303.314	52.75	
304.112	49.75	
304.911	48.75	
305.709	48.75	
306.507	49.75	
307.306	47.75	
308.104	47.75	
308.902	48.75	
309.7	50.75	
310.498	49.75	
311.295	44.75	
312.093	54.75	
312.891	55.75	
313.688	50.75	
314.485	47.75	
315.283	56.75	
316.08	50.75	
316.877	49.75	
317.674	47.75	
318.471	40.75	
319.268	47.75	
320.065	50.75	
320.862	47.75	
321.658	43.75	
322.455	47.75	
323.251	42.75	
324.047	44.75	
324.844	53.75	
325.64	45.75	
326.436	51.75	
327.232	45.75	
328.028	46.75	
328.824	42.75	
329.62	53.75	
330.415	57.75	
331.211	46.75	
332.006	47.75	
332.802	47.75	
333.597	48.75	
334.392	51.75	
335.187	50.75	
335.982	45.75	
336.777	51.75	
337.572	50.75	
338.367	52.75	
339.162	52.75	
339.956	46.75	
340.751	52.75	
341.545	53.75	
342.34	47.75	
343.134	49.75	
343.928	48.75	
344.722	54.75	
345.516	47.75	
346.31	42.75	
347.104	48.75	
347.898	45.75	
348.691	44.75	
349.485	44.75	
350.278	52.75	
351.072	52.75	
351.865	462.75	
352.658	48.75	
353.452	57.75	
354.245	42.75	
355.038	54.75	
355.83	47.75	
356.623	48.75	
357.416	50.75	
358.209	47.75	
359.001	46.75	
359.794	48.75	
360.586	45.75	
361.378	54.75	
362.17	44.75	
362.963	43.75	
363.755	54.75	
364.546	42.75	
365.338	50.75	
366.13	52.75	
366.922	50.75	
367.713	49.75	
368.505	47.75	
369.296	49.75	
370.088	38.75	
370.879	40.75	
371.67	47.75	
372.461	49.75	
373.252	45.75	
374.043	52.75	
374.834	43.75	
375.625	50.75	
376.415	52.75	
377.206	45.75	
377.996	45.75	
378.787	53.75	
379.577	43.75	
380.367	38.75	
381.157	49.75	
381.947	48.75	
382.737	49.75	
383.527	53.75	
384.317	54.75	
385.107	47.75	
385.896	56.75	
386.686	47.75	
387.475	46.75	
388.265	45.75	
389.054	64.75	
389.843	47.75	
390.632	48.75	
391.421	47.75	
392.21	55.75	
392.999	44.75	
393.788	51.75	
394.576	54.75	
395.365	50.75	
396.154	51.75	
396.942	47.75	
397.73	47.75	
398.519	54.75	
399.307	48.75	
400.095	45.75	
400.883	55.75	
401.671	45.75	
402.459	52.75	
403.246	43.75	
404.034	47.75	
404.822	48.75	
405.609	48.75	
406.396	56.75	
407.184	44.75	
407.971	50.75	
408.758	54.75	
409.545	39.75	
410.332	52.75	
411.119	52.75	
411.906	46.75	
412.693	51.75	
413.479	53.75	
414.266	46.75	
415.052	55.75	
415.839	47.75	
416.625	49.75	
417.411	45.75	
418.197	51.75	
418.983	53.75	
419.769	53.75	
420.555	48.75	
421.341	46.75	
422.127	49.75	
422.912	48.75	
423.698	53.75	
424.483	50.75	
425.269	46.75	
426.054	42.75	
426.839	54.75	
427.624	48.75	
428.409	48.75	
429.194	46.75	
429.979	54.75	
430.764	49.75	
431.549	54.75	
432.333	53.75	
433.118	46.75	
433.902	57.75	
434.687	50.75	
435.471	53.75	
436.255	50.75	
437.039	49.75	
437.823	54.75	
438.607	55.75	
439.391	57.75	
440.175	54.75	
440.958	58.75	
441.742	56.75	
442.526	56.75	
443.309	64.75	
444.092	64.75	
444.876	66.75	
445.659	64.75	
446.442	69.75	
447.225	73.75	
448.008	85.75	
448.791	108.75	
449.573	162.75	
450.356	226.75	
451.139	324.75	
451.921	438.75	
452.704	601.75	
453.486	776.75	
454.268	1005.75	
455.05	1232.75	
455.833	1450.75	
456.615	1581.75	
457.396	1660.75	
458.178	1676.75	
458.96	1606.75	
459.742	1550.75	
460.523	1430.75	
461.305	1312.75	
462.086	1140.75	
462.868	878.75	
463.649	604.75	
464.43	357.75	
465.211	196.75	
465.992	102.75	
466.773	83.75	
467.554	63.75	
468.335	61.75	
469.115	65.75	
469.896	57.75	
470.676	52.75	
471.457	57.75	
472.237	56.75	
473.018	59.75	
473.798	54.75	
474.578	54.75	
475.358	54.75	
476.138	48.75	
476.918	48.75	
477.697	49.75	
478.477	56.75	
479.257	52.75	
480.036	47.75	
480.816	48.75	
481.595	52.75	
482.374	48.75	
483.153	53.75	
483.932	49.75	
484.711	51.75	
485.49	49.75	
486.269	47.75	
487.048	45.75	
487.827	51.75	
488.605	47.75	
489.384	51.75	
490.162	55.75	
490.941	57.75	
491.719	50.75	
492.497	48.75	
493.275	48.75	
494.053	50.75	
494.831	48.75	
495.609	48.75	
496.387	50.75	
497.164	46.75	
497.942	53.75	
498.72	52.75	
499.497	53.75	
500.274	44.75	
501.052	49.75	
501.829	53.75	
502.606	47.75	
503.383	48.75	
504.16	53.75	
504.937	48.75	
505.714	44.75	
506.49	51.75	
507.267	45.75	
508.043	52.75	
508.82	58.75	
509.596	42.75	
510.373	51.75	
511.149	45.75	
511.925	47.75	
512.701	51.75	
513.477	54.75	
514.253	51.75	
515.029	49.75	
515.804	46.75	
516.58	53.75	
517.356	47.75	
518.131	59.75	
518.906	49.75	
519.682	47.75	
520.457	48.75	
521.232	48.75	
522.007	53.75	
522.782	47.75	
523.557	48.75	
524.332	47.75	
525.107	49.75	
525.881	53.75	
526.656	42.75	
527.43	51.75	
528.205	48.75	
528.979	46.75	
529.753	48.75	
530.527	53.75	
531.302	50.75	
532.076	50.75	
532.849	46.75	
533.623	49.75	
534.397	46.75	
535.171	49.75	
535.944	52.75	
536.718	44.75	
537.491	59.75	
538.265	46.75	
539.038	47.75	
539.811	52.75	
540.584	47.75	
541.357	47.75	
542.13	58.75	
542.903	58.75	
543.676	47.75	
544.449	53.75	
545.221	50.75	
545.994	48.75	
546.766	52.75	
547.539	45.75	
548.311	48.75	
549.083	49.75	
549.855	45.75	
550.627	59.75	
551.399	53.75	
552.171	54.75	
552.943	50.75	
553.715	48.75	
554.486	48.75	
555.258	46.75	
556.029	46.75	
556.801	54.75	
557.572	46.75	
558.343	51.75	
559.114	54.75	
559.886	46.75	
560.657	43.75	
561.427	40.75	
562.198	45.75	
562.969	50.75	
563.74	47.75	
564.51	48.75	
565.281	52.75	
566.051	51.75	
566.822	49.75	
567.592	50.75	
568.362	50.75	
569.132	47.75	
569.902	58.75	
570.672	45.75	
571.442	53.75	
572.212	52.75	
572.982	48.75	
573.751	55.75	
574.521	52.75	
575.29	56.75	
576.06	53.75	
576.829	46.75	
577.598	52.75	
578.367	45.75	
579.136	48.75	
579.905	51.75	
580.674	55.75	
581.443	53.75	
582.212	44.75	
582.981	54.75	
583.749	50.75	
584.518	54.75	
585.286	56.75	
586.054	60.75	
586.823	51.75	
587.591	51.75	
588.359	60.75	
589.127	49.75	
589.895	57.75	
590.663	57.75	
591.431	50.75	
592.198	58.75	
592.966	54.75	
593.734	57.75	
594.501	49.75	
595.268	49.75	
596.036	53.75	
596.803	46.75	
597.57	50.75	
598.337	50.75	
599.104	47.75	
599.871	52.75	
600.638	54.75	
601.405	56.75	
602.171	48.75	
602.938	66.75	
603.704	45.75	
604.471	50.75	
605.237	56.75	
606.004	53.75	
606.77	54.75	
607.536	54.75	
608.302	51.75	
609.068	54.75	
609.834	49.75	
610.599	56.75	
611.365	48.75	
612.131	51.75	
612.896	55.75	
613.662	54.75	
614.427	54.75	
615.193	56.75	
615.958	51.75	
616.723	53.75	
617.488	46.75	
618.253	58.75	
619.018	49.75	
619.783	49.75	
620.548	53.75	
621.312	50.75	
622.077	47.75	
622.842	48.75	
623.606	62.75	
624.37	49.75	
625.135	60.75	
625.899	55.75	
626.663	50.75	
627.427	53.75	
628.191	47.75	
628.955	49.75	
629.719	51.75	
630.483	49.75	
631.246	44.75	
632.01	49.75	
632.773	59.75	
633.537	44.75	
634.3	50.75	
635.063	48.75	
635.827	48.75	
636.59	45.75	
637.353	53.75	
638.116	52.75	
638.879	43.75	
639.641	47.75	
640.404	54.75	
641.167	50.75	
641.929	58.75	
642.692	49.75	
643.454	47.75	
644.216	52.75	
644.979	51.75	
645.741	55.75	
646.503	54.75	
647.265	53.75	
648.027	57.75	
648.789	47.75	
649.551	56.75	
650.312	52.75	
651.074	49.75	
651.835	49.75	
652.597	46.75	
653.358	59.75	
654.12	51.75	
654.881	52.75	
655.642	52.75	
656.403	51.75	
657.164	46.75	
657.925	51.75	
658.686	51.75	
659.447	49.75	
660.207	46.75	
660.968	53.75	
661.728	53.75	
662.489	49.75	
663.249	54.75	
664.01	49.75	
664.77	59.75	
665.53	58.75	
666.29	42.75	
667.05	56.75	
667.81	49.75	
668.57	48.75	
669.329	52.75	
670.089	48.75	
670.849	54.75	
671.608	55.75	
672.368	46.75	
673.127	57.75	
673.886	47.75	
674.646	45.75	
675.405	52.75	
676.164	47.75	
676.923	57.75	
677.682	59.75	
678.44	49.75	
679.199	49.75	
679.958	67.75	
680.717	54.75	
681.475	48.75	
682.233	51.75	
682.992	41.75	
683.75	47.75	
684.508	56.75	
685.266	47.75	
686.024	55.75	
686.782	53.75	
687.54	54.75	
688.298	52.75	
689.056	58.75	
689.814	44.75	
690.571	51.75	
691.329	51.75	
692.086	48.75	
692.843	49.75	
693.601	52.75	
694.358	53.75	
695.115	48.75	
695.872	48.75	
696.629	48.75	
697.386	58.75	
698.143	53.75	
698.9	47.75	
699.656	54.75	
700.413	48.75	
701.169	48.75	
701.926	46.75	
702.682	45.75	
703.438	47.75	
704.195	57.75	
704.951	43.75	
705.707	43.75	
706.463	47.75	
707.219	49.75	
707.974	48.75	
708.73	44.75	
709.486	43.75	
710.241	50.75	
710.997	49.75	
711.752	48.75	
712.508	51.75	
713.263	49.75	
714.018	48.75	
714.773	48.75	
715.528	54.75	
716.283	53.75	
717.038	47.75	
717.793	46.75	
718.548	49.75	
719.303	45.75	
720.057	45.75	
720.812	47.75	
721.566	45.75	
722.321	48.75	
723.075	46.75	
723.829	48.75	
724.583	47.75	
725.337	47.75	
726.091	56.75	
726.845	48.75	
727.599	49.75	
728.353	50.75	
729.106	45.75	
729.86	55.75	
730.614	43.75	
731.367	405.75	
732.12	49.75	
732.874	45.75	
733.627	51.75	
734.38	51.75	
735.133	48.75	
735.886	49.75	
736.639	46.75	
737.392	48.75	
738.145	44.75	
738.897	53.75	
739.65	49.75	
740.403	53.75	
741.155	47.75	
741.907	49.75	
742.66	56.75	
743.412	44.75	
744.164	51.75	
744.916	42.75	
745.668	44.75	
746.42	56.75	
747.172	47.75	
747.924	51.75	
748.676	45.75	
749.427	46.75	
750.179	54.75	
750.93	54.75	
751.682	44.75	
752.433	50.75	
753.184	55.75	
753.935	50.75	
754.687	45.75	
755.438	55.75	
756.189	49.75	
756.939	46.75	
757.69	47.75	
758.441	49.75	
759.192	48.75	
759.942	52.75	
760.693	54.75	
761.443	48.75	
762.194	48.75	
762.944	46.75	
763.694	52.75	
764.444	44.75	
765.194	52.75	
765.944	50.75	
766.694	49.75	
767.444	54.75	
768.194	52.75	
768.943	44.75	
769.693	52.75	
770.443	57.75	
771.192	53.75	
771.941	39.75	
772.691	53.75	
773.44	47.75	
774.189	54.75	
774.938	50.75	
775.687	49.75	
776.436	49.75	
777.185	53.75	
777.934	49.75	
778.683	49.75	
779.431	49.75	
780.18	53.75	
780.928	50.75	
781.677	44.75	
782.425	55.75	
783.173	50.75	
783.922	50.75	
784.67	56.75	
785.418	50.75	
786.166	55.75	
786.914	46.75	
787.661	51.75	
788.409	49.75	
789.157	48.75	
789.904	47.75	
790.652	53.75	
791.399	47.75	
792.147	52.75	
792.894	54.75	
793.641	51.75	
794.388	351.75	
795.136	52.75	
795.883	46.75	
796.629	57.75	
797.376	42.75	
798.123	46.75	
798.87	46.75	
799.616	48.75	
800.363	55.75	
801.109	51.75	
801.856	49.75	
802.602	35.75	
803.349	54.75	
804.095	57.75	
804.841	45.75	
805.587	52.75	
806.333	53.75	
807.079	52.75	
807.825	42.75	
808.57	51.75	
809.316	57.75	
810.062	51.75	
810.807	53.75	
811.553	54.75	
812.298	50.75	
813.043	51.75	
813.788	52.75	
814.534	48.75	
815.279	55.75	
816.024	57.75	
816.769	51.75	
817.514	54.75	
818.258	53.75	
819.003	52.75	
819.748	1014.75	
820.492	51.75	
821.237	304.75	
821.981	50.75	
822.726	55.75	
823.47	54.75	
824.214	58.75	
824.958	50.75	
825.702	56.75	
826.446	51.75	
827.19	53.75	
827.934	55.75	
828.678	50.75	
829.421	54.75	
830.165	53.75	
830.909	50.75	
831.652	50.75	
832.395	46.75	
833.139	53.75	
833.882	62.75	
834.625	54.75	
835.368	55.75	
836.111	43.75	
836.854	54.75	
837.597	53.75	
838.34	49.75	
839.083	52.75	
839.825	54.75	
840.568	45.75	
841.311	53.75	
842.053	55.75	
842.795	50.75	
843.538	48.75	
844.28	46.75	
845.022	51.75	
845.764	64.75	
846.506	45.75	
847.248	47.75	
847.99	50.75	
848.732	51.75	
849.474	41.75	
850.215	41.75	
850.957	41.75	
851.698	44.75	
852.44	54.75	
853.181	47.75	
853.922	56.75	
854.664	48.75	
855.405	54.75	
856.146	47.75	
856.887	46.75	
857.628	49.75	
858.369	42.75	
859.109	57.75	
859.85	46.75	
860.591	53.75	
861.331	46.75	
862.072	41.75	
862.812	43.75	
863.553	43.75	
864.293	56.75	
865.033	45.75	
865.773	50.75	
866.513	47.75	
867.253	44.75	
867.993	48.75	
868.733	46.75	
869.473	52.75	
870.213	56.75	
870.952	43.75	
871.692	48.75	
872.431	47.75	
873.171	45.75	
873.91	51.75	
874.649	41.75	
875.388	48.75	
876.128	45.75	
876.867	44.75	
877.606	48.75	
878.345	44.75	
879.083	43.75	
879.822	47.75	
880.561	48.75	
881.299	50.75	
882.038	45.75	
882.777	51.75	
883.515	54.75	
884.253	526.75	
884.992	44.75	
885.73	46.75	
886.468	47.75	
887.206	56.75	
887.944	52.75	
888.682	49.75	
889.42	51.75	
890.157	49.75	
890.895	47.75	
891.633	92.75	
892.37	49.75	
893.108	51.75	
893.845	48.75	
894.583	48.75	
895.32	38.75	
896.057	44.75	
896.794	48.75	
897.531	48.75	
898.268	47.75	
899.005	49.75	
899.742	45.75	
900.479	46.75	
901.215	48.75	
901.952	50.75	
902.689	44.75	
903.425	42.75	
904.162	44.75	
904.898	50.75	
905.634	53.75	
906.37	49.75	
907.106	44.75	
907.843	49.75	
908.579	43.75	
909.314	39.75	
910.05	46.75	
910.786	45.75	
911.522	44.75	
912.257	51.75	
912.993	46.75	
913.728	44.75	
914.464	47.75	
915.199	46.75	
915.935	42.75	
916.67	46.75	
917.405	50.75	
918.14	52.75	
918.875	49.75	
919.61	55.75	
920.345	50.75	
921.08	53.75	
921.814	51.75	
922.549	44.75	
923.284	46.75	
924.018	46.75	
924.752	57.75	
925.487	53.75	
926.221	45.75	
926.955	49.75	
927.69	43.75	
928.424	51.75	
929.158	48.75	
929.892	45.75	
930.625	50.75	
931.359	56.75	
932.093	51.75	
932.827	43.75	
933.56	46.75	
934.294	39.75	
935.027	50.75	
935.761	52.75	
936.494	46.75	
937.227	43.75	
937.96	45.75	
938.693	55.75	
939.426	44.75	
940.159	54.75	
940.892	48.75	
941.625	54.75	
942.358	50.75	
943.091	48.75	
943.823	41.75	
944.556	44.75	
945.288	50.75	
946.021	51.75	
946.753	46.75	
947.485	51.75	
948.217	50.75	
948.95	48.75	
949.682	43.75	
950.414	44.75	
951.146	45.75	
951.877	43.75	
952.609	45.75	
953.341	53.75	
954.073	56.75	
954.804	50.75	
955.536	45.75	
956.267	52.75	
956.998	45.75	
957.73	41.75	
958.461	44.75	
959.192	45.75	
959.923	53.75	
960.654	47.75	
961.385	47.75	
962.116	45.75	
962.847	47.75	
963.578	48.75	
964.308	49.75	
965.039	44.75	
965.769	47.75	
966.5	48.75	
967.23	48.75	
967.961	45.75	
968.691	48.75	
969.421	39.75	
970.151	52.75	
970.881	44.75	
971.611	54.75	
972.341	50.75	
973.071	49.75	
973.801	56.75	
974.53	45.75	
975.26	46.75	
975.99	49.75	
976.719	55.75	
977.448	42.75	
978.178	46.75	
978.907	50.75	
979.636	43.75	
980.365	52.75	
981.095	57.75	
981.824	48.75	
982.553	46.75	
983.281	44.75	
984.01	1.75	
984.739	-2.25	
985.468	-4.25	
986.196	-10.25	
986.925	63.75	
987.653	43.75	
988.382	49.75	
989.11	45.75	
989.838	49.75	
990.566	59.75	
991.295	43.75	
992.023	55.75	
992.751	54.75	
993.478	49.75	
994.206	48.75	
994.934	48.75	
995.662	-0.25	
996.389	-3.25	
997.117	10.75	
997.845	7.75	

