197.938	50	
198.749	43	
199.559	45	
200.369	41	
201.179	44	
201.988	47	
202.798	50	
203.608	46	
204.417	47	
205.227	42	
206.036	50	
206.846	48	
207.655	48	
208.464	42	
209.273	48	
210.082	50	
210.891	45	
211.7	45	
212.508	45	
213.317	44	
214.125	43	
214.934	45	
215.742	46	
216.55	45	
217.359	42	
218.167	43	
218.975	51	
219.782	45	
220.59	45	
221.398	42	
222.206	50	
223.013	50	
223.82	44	
224.628	44	
225.435	47	
226.242	51	
227.049	49	
227.856	42	
228.663	42	
229.47	48	
230.277	46	
231.083	44	
231.89	42	
232.696	46	
233.502	44	
234.309	42	
235.115	52	
235.921	46	
236.727	39	
237.533	51	
238.339	48	
239.144	48	
239.95	54	
240.756	50	
241.561	50	
242.366	44	
243.172	51	
243.977	44	
244.782	48	
245.587	47	
246.392	45	
247.197	43	
248.001	45	
248.806	45	
249.611	44	
250.415	49	
251.219	44	
252.024	52	
252.828	42	
253.632	43	
254.436	45	
255.24	45	
256.044	50	
256.848	41	
257.651	41	
258.455	51	
259.258	52	
260.062	3542	
260.865	46	
261.668	46	
262.471	45	
263.274	47	
264.077	42	
264.88	49	
265.683	43	
266.486	46	
267.288	47	
268.091	38	
268.893	49	
269.696	50	
270.498	49	
271.3	48	
272.102	54	
272.904	46	
273.706	46	
274.508	47	
275.309	49	
276.111	50	
276.913	41	
277.714	44	
278.515	45	
279.317	54	
280.118	39	
280.919	48	
281.72	49	
282.521	53	
283.322	47	
284.122	49	
284.923	51	
285.724	44	
286.524	43	
287.325	51	
288.125	40	
288.925	46	
289.725	47	
290.525	51	
291.325	46	
292.125	46	
292.925	53	
293.724	46	
294.524	42	
295.324	44	
296.123	50	
296.922	48	
297.722	66	
298.521	51	
299.32	57	
300.119	41	
300.918	47	
301.716	55	
302.515	47	
303.314	55	
304.112	48	
304.911	47	
305.709	48	
306.507	52	
307.306	46	
308.104	45	
308.902	47	
309.7	46	
310.498	55	
311.295	42	
312.093	53	
312.891	51	
313.688	47	
314.485	49	
315.283	45	
316.08	49	
316.877	49	
317.674	46	
318.471	41	
319.268	47	
320.065	52	
320.862	48	
321.658	47	
322.455	47	
323.251	44	
324.047	41	
324.844	55	
325.64	44	
326.436	46	
327.232	44	
328.028	45	
328.824	46	
329.62	47	
330.415	56	
331.211	50	
332.006	50	
332.802	51	
333.597	48	
334.392	49	
335.187	45	
335.982	49	
336.777	53	
337.572	48	
338.367	48	
339.162	50	
339.956	49	
340.751	52	
341.545	53	
342.34	54	
343.134	45	
343.928	49	
344.722	52	
345.516	45	
346.31	45	
347.104	47	
347.898	47	
348.691	50	
349.485	45	
350.278	48	
351.072	53	
351.865	489	
352.658	51	
353.452	55	
354.245	45	
355.038	46	
355.83	50	
356.623	45	
357.416	41	
358.209	50	
359.001	50	
359.794	51	
360.586	50	
361.378	48	
362.17	47	
362.963	45	
363.755	52	
364.546	46	
365.338	48	
366.13	50	
366.922	50	
367.713	47	
368.505	47	
369.296	51	
370.088	38	
370.879	42	
371.67	47	
372.461	44	
373.252	46	
374.043	53	
374.834	39	
375.625	50	
376.415	55	
377.206	47	
377.996	44	
378.787	51	
379.577	42	
380.367	40	
381.157	45	
381.947	49	
382.737	50	
383.527	52	
384.317	53	
385.107	45	
385.896	49	
386.686	50	
387.475	48	
388.265	46	
389.054	63	
389.843	48	
390.632	50	
391.421	48	
392.21	55	
392.999	42	
393.788	54	
394.576	52	
395.365	47	
396.154	46	
396.942	46	
397.73	43	
398.519	49	
399.307	47	
400.095	47	
400.883	56	
401.671	46	
402.459	48	
403.246	44	
404.034	46	
404.822	46	
405.609	52	
406.396	53	
407.184	40	
407.971	50	
408.758	49	
409.545	38	
410.332	49	
411.119	51	
411.906	44	
412.693	50	
413.479	51	
414.266	44	
415.052	51	
415.839	48	
416.625	50	
417.411	51	
418.197	56	
418.983	52	
419.769	55	
420.555	50	
421.341	45	
422.127	48	
422.912	51	
423.698	51	
424.483	44	
425.269	46	
426.054	44	
426.839	50	
427.624	48	
428.409	52	
429.194	48	
429.979	51	
430.764	47	
431.549	49	
432.333	49	
433.118	41	
433.902	54	
434.687	47	
435.471	46	
436.255	48	
437.039	49	
437.823	46	
438.607	46	
439.391	51	
440.175	48	
440.958	44	
441.742	48	
442.526	45	
443.309	49	
444.092	54	
444.876	53	
445.659	50	
446.442	50	
447.225	52	
448.008	60	
448.791	53	
449.573	55	
450.356	51	
451.139	53	
451.921	47	
452.704	49	
453.486	46	
454.268	47	
455.05	51	
455.833	57	
456.615	53	
457.396	51	
458.178	58	
458.96	45	
459.742	53	
460.523	48	
461.305	50	
462.086	53	
462.868	57	
463.649	53	
464.43	49	
465.211	60	
465.992	55	
466.773	59	
467.554	50	
468.335	53	
469.115	55	
469.896	49	
470.676	40	
471.457	54	
472.237	52	
473.018	53	
473.798	56	
474.578	59	
475.358	54	
476.138	50	
476.918	53	
477.697	56	
478.477	61	
479.257	58	
480.036	58	
480.816	55	
481.595	64	
482.374	64	
483.153	70	
483.932	70	
484.711	71	
485.49	68	
486.269	69	
487.048	67	
487.827	87	
488.605	105	
489.384	154	
490.162	280	
490.941	502	
491.719	808	
492.497	1218	
493.275	1654	
494.053	2114	
494.831	2518	
495.609	2848	
496.387	3056	
497.164	3157	
497.942	3172	
498.72	3117	
499.497	2970	
500.274	2735	
501.052	2427	
501.829	2029	
502.606	1569	
503.383	1094	
504.16	680	
504.937	360	
505.714	168	
506.49	98	
507.267	72	
508.043	65	
508.82	75	
509.596	55	
510.373	65	
511.149	56	
511.925	58	
512.701	57	
513.477	63	
514.253	60	
515.029	53	
515.804	57	
516.58	61	
517.356	51	
518.131	61	
518.906	54	
519.682	54	
520.457	52	
521.232	55	
522.007	54	
522.782	54	
523.557	49	
524.332	49	
525.107	52	
525.881	46	
526.656	47	
527.43	44	
528.205	50	
528.979	48	
529.753	50	
530.527	56	
531.302	48	
532.076	51	
532.849	52	
533.623	54	
534.397	48	
535.171	51	
535.944	57	
536.718	45	
537.491	56	
538.265	44	
539.038	55	
539.811	54	
540.584	50	
541.357	50	
542.13	57	
542.903	62	
543.676	51	
544.449	49	
545.221	53	
545.994	45	
546.766	53	
547.539	44	
548.311	52	
549.083	53	
549.855	42	
550.627	58	
551.399	49	
552.171	57	
552.943	52	
553.715	45	
554.486	54	
555.258	48	
556.029	43	
556.801	54	
557.572	42	
558.343	49	
559.114	57	
559.886	52	
560.657	48	
561.427	44	
562.198	43	
562.969	56	
563.74	51	
564.51	51	
565.281	48	
566.051	44	
566.822	52	
567.592	48	
568.362	48	
569.132	50	
569.902	61	
570.672	47	
571.442	52	
572.212	53	
572.982	51	
573.751	50	
574.521	51	
575.29	55	
576.06	56	
576.829	50	
577.598	46	
578.367	47	
579.136	46	
579.905	49	
580.674	57	
581.443	51	
582.212	48	
582.981	55	
583.749	49	
584.518	49	
585.286	57	
586.054	64	
586.823	51	
587.591	48	
588.359	55	
589.127	49	
589.895	55	
590.663	57	
591.431	50	
592.198	54	
592.966	51	
593.734	58	
594.501	48	
595.268	49	
596.036	52	
596.803	50	
597.57	50	
598.337	49	
599.104	49	
599.871	55	
600.638	55	
601.405	53	
602.171	47	
602.938	62	
603.704	42	
604.471	48	
605.237	57	
606.004	53	
606.77	55	
607.536	50	
608.302	56	
609.068	57	
609.834	47	
610.599	49	
611.365	45	
612.131	48	
612.896	52	
613.662	56	
614.427	58	
615.193	56	
615.958	51	
616.723	50	
617.488	45	
618.253	53	
619.018	48	
619.783	49	
620.548	57	
621.312	50	
622.077	45	
622.842	44	
623.606	62	
624.37	53	
625.135	53	
625.899	52	
626.663	46	
627.427	56	
628.191	54	
628.955	52	
629.719	50	
630.483	52	
631.246	46	
632.01	49	
632.773	54	
633.537	48	
634.3	47	
635.063	48	
635.827	46	
636.59	49	
637.353	54	
638.116	57	
638.879	44	
639.641	48	
640.404	52	
641.167	48	
641.929	52	
642.692	45	
643.454	46	
644.216	50	
644.979	50	
645.741	51	
646.503	58	
647.265	52	
648.027	61	
648.789	46	
649.551	55	
650.312	52	
651.074	47	
651.835	47	
652.597	55	
653.358	58	
654.12	49	
654.881	51	
655.642	49	
656.403	50	
657.164	53	
657.925	52	
658.686	50	
659.447	47	
660.207	45	
660.968	50	
661.728	56	
662.489	51	
663.249	52	
664.01	51	
664.77	55	
665.53	55	
666.29	42	
667.05	49	
667.81	48	
668.57	51	
669.329	47	
670.089	46	
670.849	50	
671.608	54	
672.368	48	
673.127	57	
673.886	46	
674.646	44	
675.405	53	
676.164	53	
676.923	54	
677.682	58	
678.44	47	
679.199	48	
679.958	68	
680.717	51	
681.475	52	
682.233	46	
682.992	45	
683.75	49	
684.508	51	
685.266	47	
686.024	51	
686.782	44	
687.54	52	
688.298	48	
689.056	57	
689.814	42	
690.571	49	
691.329	53	
692.086	47	
692.843	47	
693.601	51	
694.358	57	
695.115	45	
695.872	45	
696.629	42	
697.386	58	
698.143	56	
698.9	46	
699.656	52	
700.413	51	
701.169	49	
701.926	48	
702.682	45	
703.438	48	
704.195	53	
704.951	46	
705.707	44	
706.463	41	
707.219	48	
707.974	44	
708.73	42	
709.486	50	
710.241	47	
710.997	50	
711.752	50	
712.508	49	
713.263	51	
714.018	45	
714.773	49	
715.528	50	
716.283	50	
717.038	46	
717.793	50	
718.548	48	
719.303	50	
720.057	46	
720.812	55	
721.566	49	
722.321	45	
723.075	49	
723.829	51	
724.583	45	
725.337	52	
726.091	55	
726.845	52	
727.599	45	
728.353	51	
729.106	45	
729.86	54	
730.614	46	
731.367	389	
732.12	49	
732.874	42	
733.627	48	
734.38	52	
735.133	48	
735.886	48	
736.639	55	
737.392	46	
738.145	48	
738.897	56	
739.65	49	
740.403	51	
741.155	49	
741.907	45	
742.66	56	
743.412	42	
744.164	50	
744.916	49	
745.668	53	
746.42	55	
747.172	53	
747.924	47	
748.676	48	
749.427	44	
750.179	52	
750.93	50	
751.682	45	
752.433	54	
753.184	56	
753.935	46	
754.687	46	
755.438	51	
756.189	48	
756.939	48	
757.69	46	
758.441	54	
759.192	51	
759.942	50	
760.693	47	
761.443	54	
762.194	43	
762.944	46	
763.694	52	
764.444	48	
765.194	48	
765.944	48	
766.694	51	
767.444	54	
768.194	52	
768.943	43	
769.693	53	
770.443	52	
771.192	57	
771.941	42	
772.691	52	
773.44	47	
774.189	49	
774.938	51	
775.687	48	
776.436	52	
777.185	54	
777.934	47	
778.683	51	
779.431	53	
780.18	49	
780.928	46	
781.677	47	
782.425	52	
783.173	54	
783.922	51	
784.67	57	
785.418	55	
786.166	53	
786.914	44	
787.661	49	
788.409	50	
789.157	47	
789.904	45	
790.652	55	
791.399	50	
792.147	49	
792.894	56	
793.641	47	
794.388	328	
795.136	52	
795.883	43	
796.629	53	
797.376	44	
798.123	50	
798.87	41	
799.616	45	
800.363	55	
801.109	56	
801.856	50	
802.602	42	
803.349	57	
804.095	53	
804.841	51	
805.587	49	
806.333	48	
807.079	54	
807.825	49	
808.57	49	
809.316	57	
810.062	50	
810.807	51	
811.553	60	
812.298	54	
813.043	51	
813.788	57	
814.534	49	
815.279	52	
816.024	50	
816.769	50	
817.514	54	
818.258	51	
819.003	54	
819.748	984	
820.492	52	
821.237	295	
821.981	46	
822.726	53	
823.47	53	
824.214	52	
824.958	47	
825.702	51	
826.446	52	
827.19	52	
827.934	58	
828.678	52	
829.421	58	
830.165	52	
830.909	52	
831.652	46	
832.395	49	
833.139	53	
833.882	61	
834.625	50	
835.368	52	
836.111	41	
836.854	46	
837.597	53	
838.34	53	
839.083	48	
839.825	55	
840.568	45	
841.311	52	
842.053	52	
842.795	48	
843.538	47	
844.28	45	
845.022	46	
845.764	64	
846.506	44	
847.248	46	
847.99	48	
848.732	53	
849.474	49	
850.215	41	
850.957	41	
851.698	44	
852.44	51	
853.181	48	
853.922	55	
854.664	45	
855.405	56	
856.146	46	
856.887	52	
857.628	53	
858.369	46	
859.109	56	
859.85	46	
860.591	52	
861.331	45	
862.072	43	
862.812	42	
863.553	45	
864.293	53	
865.033	45	
865.773	55	
866.513	47	
867.253	46	
867.993	47	
868.733	48	
869.473	50	
870.213	56	
870.952	46	
871.692	49	
872.431	45	
873.171	46	
873.91	49	
874.649	40	
875.388	50	
876.128	47	
876.867	42	
877.606	52	
878.345	46	
879.083	42	
879.822	46	
880.561	46	
881.299	48	
882.038	50	
882.777	50	
883.515	50	
884.253	510	
884.992	51	
885.73	49	
886.468	47	
887.206	54	
887.944	52	
888.682	46	
889.42	50	
890.157	46	
890.895	45	
891.633	92	
892.37	50	
893.108	50	
893.845	45	
894.583	46	
895.32	42	
896.057	41	
896.794	47	
897.531	51	
898.268	42	
899.005	44	
899.742	48	
900.479	48	
901.215	45	
901.952	47	
902.689	47	
903.425	40	
904.162	48	
904.898	46	
905.634	51	
906.37	47	
907.106	44	
907.843	52	
908.579	50	
909.314	38	
910.05	46	
910.786	46	
911.522	44	
912.257	48	
912.993	48	
913.728	44	
914.464	51	
915.199	43	
915.935	45	
916.67	47	
917.405	50	
918.14	52	
918.875	46	
919.61	53	
920.345	58	
921.08	53	
921.814	47	
922.549	44	
923.284	47	
924.018	44	
924.752	50	
925.487	45	
926.221	45	
926.955	48	
927.69	46	
928.424	52	
929.158	51	
929.892	49	
930.625	48	
931.359	54	
932.093	47	
932.827	48	
933.56	46	
934.294	44	
935.027	51	
935.761	49	
936.494	46	
937.227	43	
937.96	51	
938.693	54	
939.426	42	
940.159	53	
940.892	49	
941.625	51	
942.358	45	
943.091	47	
943.823	42	
944.556	42	
945.288	46	
946.021	48	
946.753	45	
947.485	57	
948.217	52	
948.95	52	
949.682	40	
950.414	48	
951.146	44	
951.877	44	
952.609	48	
953.341	48	
954.073	51	
954.804	47	
955.536	50	
956.267	52	
956.998	46	
957.73	46	
958.461	44	
959.192	40	
959.923	45	
960.654	53	
961.385	44	
962.116	47	
962.847	44	
963.578	49	
964.308	45	
965.039	44	
965.769	48	
966.5	48	
967.23	45	
967.961	44	
968.691	50	
969.421	42	
970.151	50	
970.881	43	
971.611	53	
972.341	52	
973.071	50	
973.801	51	
974.53	49	
975.26	53	
975.99	48	
976.719	51	
977.448	48	
978.178	44	
978.907	49	
979.636	43	
980.365	53	
981.095	57	
981.824	50	
982.553	51	
983.281	44	
984.01	1	
984.739	-4	
985.468	-3	
986.196	-9	
986.925	62	
987.653	43	
988.382	52	
989.11	49	
989.838	48	
990.566	56	
991.295	44	
992.023	50	
992.751	52	
993.478	46	
994.206	51	
994.934	43	
995.662	1	
996.389	-4	
997.117	8	
997.845	10	

