197.938	43.38	
198.749	45.38	
199.559	46.38	
200.369	42.38	
201.179	45.38	
201.988	46.38	
202.798	53.38	
203.608	47.38	
204.417	46.38	
205.227	45.38	
206.036	50.38	
206.846	44.38	
207.655	51.38	
208.464	48.38	
209.273	49.38	
210.082	47.38	
210.891	43.38	
211.7	47.38	
212.508	42.38	
213.317	44.38	
214.125	43.38	
214.934	42.38	
215.742	41.38	
216.55	49.38	
217.359	44.38	
218.167	50.38	
218.975	46.38	
219.782	44.38	
220.59	44.38	
221.398	41.38	
222.206	55.38	
223.013	46.38	
223.82	42.38	
224.628	40.38	
225.435	46.38	
226.242	45.38	
227.049	50.38	
227.856	40.38	
228.663	51.38	
229.47	45.38	
230.277	49.38	
231.083	47.38	
231.89	45.38	
232.696	49.38	
233.502	45.38	
234.309	45.38	
235.115	53.38	
235.921	48.38	
236.727	44.38	
237.533	48.38	
238.339	49.38	
239.144	51.38	
239.95	54.38	
240.756	48.38	
241.561	48.38	
242.366	47.38	
243.172	51.38	
243.977	52.38	
244.782	49.38	
245.587	53.38	
246.392	49.38	
247.197	47.38	
248.001	47.38	
248.806	43.38	
249.611	48.38	
250.415	50.38	
251.219	48.38	
252.024	48.38	
252.828	46.38	
253.632	46.38	
254.436	41.38	
255.24	48.38	
256.044	49.38	
256.848	39.38	
257.651	43.38	
258.455	46.38	
259.258	48.38	
260.062	3421.38	
260.865	49.38	
261.668	47.38	
262.471	45.38	
263.274	47.38	
264.077	45.38	
264.88	49.38	
265.683	40.38	
266.486	47.38	
267.288	52.38	
268.091	45.38	
268.893	49.38	
269.696	47.38	
270.498	46.38	
271.3	47.38	
272.102	60.38	
272.904	49.38	
273.706	49.38	
274.508	46.38	
275.309	49.38	
276.111	49.38	
276.913	43.38	
277.714	44.38	
278.515	46.38	
279.317	51.38	
280.118	44.38	
280.919	49.38	
281.72	46.38	
282.521	47.38	
283.322	45.38	
284.122	53.38	
284.923	53.38	
285.724	44.38	
286.524	41.38	
287.325	54.38	
288.125	43.38	
288.925	51.38	
289.725	44.38	
290.525	48.38	
291.325	48.38	
292.125	52.38	
292.925	47.38	
293.724	42.38	
294.524	38.38	
295.324	45.38	
296.123	45.38	
296.922	48.38	
297.722	65.38	
298.521	47.38	
299.32	58.38	
300.119	41.38	
300.918	53.38	
301.716	58.38	
302.515	46.38	
303.314	51.38	
304.112	47.38	
304.911	52.38	
305.709	47.38	
306.507	47.38	
307.306	49.38	
308.104	47.38	
308.902	43.38	
309.7	50.38	
310.498	51.38	
311.295	44.38	
312.093	48.38	
312.891	53.38	
313.688	49.38	
314.485	49.38	
315.283	54.38	
316.08	53.38	
316.877	51.38	
317.674	48.38	
318.471	42.38	
319.268	51.38	
320.065	52.38	
320.862	49.38	
321.658	45.38	
322.455	50.38	
323.251	45.38	
324.047	43.38	
324.844	54.38	
325.64	40.38	
326.436	50.38	
327.232	44.38	
328.028	47.38	
328.824	49.38	
329.62	51.38	
330.415	56.38	
331.211	50.38	
332.006	43.38	
332.802	52.38	
333.597	46.38	
334.392	53.38	
335.187	53.38	
335.982	48.38	
336.777	48.38	
337.572	46.38	
338.367	55.38	
339.162	52.38	
339.956	50.38	
340.751	49.38	
341.545	46.38	
342.34	48.38	
343.134	47.38	
343.928	49.38	
344.722	56.38	
345.516	47.38	
346.31	42.38	
347.104	48.38	
347.898	44.38	
348.691	45.38	
349.485	43.38	
350.278	48.38	
351.072	54.38	
351.865	461.38	
352.658	49.38	
353.452	51.38	
354.245	48.38	
355.038	49.38	
355.83	47.38	
356.623	48.38	
357.416	43.38	
358.209	52.38	
359.001	51.38	
359.794	49.38	
360.586	51.38	
361.378	52.38	
362.17	45.38	
362.963	47.38	
363.755	59.38	
364.546	42.38	
365.338	52.38	
366.13	54.38	
366.922	49.38	
367.713	52.38	
368.505	49.38	
369.296	44.38	
370.088	42.38	
370.879	45.38	
371.67	49.38	
372.461	41.38	
373.252	45.38	
374.043	53.38	
374.834	44.38	
375.625	53.38	
376.415	57.38	
377.206	51.38	
377.996	52.38	
378.787	58.38	
379.577	43.38	
380.367	47.38	
381.157	50.38	
381.947	48.38	
382.737	48.38	
383.527	50.38	
384.317	51.38	
385.107	48.38	
385.896	53.38	
386.686	47.38	
387.475	51.38	
388.265	51.38	
389.054	62.38	
389.843	44.38	
390.632	46.38	
391.421	48.38	
392.21	52.38	
392.999	45.38	
393.788	49.38	
394.576	53.38	
395.365	52.38	
396.154	46.38	
396.942	46.38	
397.73	45.38	
398.519	54.38	
399.307	51.38	
400.095	50.38	
400.883	56.38	
401.671	45.38	
402.459	48.38	
403.246	47.38	
404.034	46.38	
404.822	44.38	
405.609	50.38	
406.396	56.38	
407.184	43.38	
407.971	49.38	
408.758	56.38	
409.545	37.38	
410.332	53.38	
411.119	49.38	
411.906	46.38	
412.693	51.38	
413.479	55.38	
414.266	48.38	
415.052	53.38	
415.839	51.38	
416.625	47.38	
417.411	49.38	
418.197	51.38	
418.983	59.38	
419.769	55.38	
420.555	49.38	
421.341	49.38	
422.127	50.38	
422.912	46.38	
423.698	56.38	
424.483	49.38	
425.269	48.38	
426.054	41.38	
426.839	55.38	
427.624	42.38	
428.409	51.38	
429.194	47.38	
429.979	52.38	
430.764	51.38	
431.549	51.38	
432.333	49.38	
433.118	45.38	
433.902	53.38	
434.687	51.38	
435.471	50.38	
436.255	50.38	
437.039	49.38	
437.823	49.38	
438.607	46.38	
439.391	48.38	
440.175	51.38	
440.958	48.38	
441.742	48.38	
442.526	47.38	
443.309	48.38	
444.092	53.38	
444.876	54.38	
445.659	49.38	
446.442	51.38	
447.225	51.38	
448.008	51.38	
448.791	53.38	
449.573	61.38	
450.356	51.38	
451.139	54.38	
451.921	48.38	
452.704	52.38	
453.486	52.38	
454.268	52.38	
455.05	51.38	
455.833	49.38	
456.615	52.38	
457.396	44.38	
458.178	59.38	
458.96	50.38	
459.742	48.38	
460.523	44.38	
461.305	53.38	
462.086	52.38	
462.868	62.38	
463.649	52.38	
464.43	47.38	
465.211	59.38	
465.992	47.38	
466.773	53.38	
467.554	51.38	
468.335	50.38	
469.115	50.38	
469.896	41.38	
470.676	41.38	
471.457	53.38	
472.237	49.38	
473.018	53.38	
473.798	50.38	
474.578	50.38	
475.358	49.38	
476.138	47.38	
476.918	47.38	
477.697	44.38	
478.477	55.38	
479.257	49.38	
480.036	49.38	
480.816	44.38	
481.595	55.38	
482.374	48.38	
483.153	54.38	
483.932	50.38	
484.711	50.38	
485.49	50.38	
486.269	44.38	
487.048	43.38	
487.827	53.38	
488.605	42.38	
489.384	45.38	
490.162	53.38	
490.941	57.38	
491.719	50.38	
492.497	51.38	
493.275	49.38	
494.053	49.38	
494.831	43.38	
495.609	51.38	
496.387	51.38	
497.164	49.38	
497.942	51.38	
498.72	47.38	
499.497	52.38	
500.274	46.38	
501.052	47.38	
501.829	55.38	
502.606	50.38	
503.383	50.38	
504.16	52.38	
504.937	50.38	
505.714	42.38	
506.49	54.38	
507.267	42.38	
508.043	51.38	
508.82	54.38	
509.596	46.38	
510.373	54.38	
511.149	42.38	
511.925	46.38	
512.701	48.38	
513.477	52.38	
514.253	53.38	
515.029	49.38	
515.804	52.38	
516.58	54.38	
517.356	55.38	
518.131	58.38	
518.906	47.38	
519.682	51.38	
520.457	51.38	
521.232	53.38	
522.007	56.38	
522.782	46.38	
523.557	47.38	
524.332	49.38	
525.107	55.38	
525.881	53.38	
526.656	47.38	
527.43	54.38	
528.205	54.38	
528.979	53.38	
529.753	56.38	
530.527	62.38	
531.302	51.38	
532.076	57.38	
532.849	51.38	
533.623	56.38	
534.397	55.38	
535.171	55.38	
535.944	58.38	
536.718	48.38	
537.491	65.38	
538.265	50.38	
539.038	57.38	
539.811	53.38	
540.584	60.38	
541.357	54.38	
542.13	61.38	
542.903	63.38	
543.676	54.38	
544.449	59.38	
545.221	56.38	
545.994	58.38	
546.766	60.38	
547.539	55.38	
548.311	62.38	
549.083	60.38	
549.855	54.38	
550.627	67.38	
551.399	63.38	
552.171	65.38	
552.943	66.38	
553.715	59.38	
554.486	68.38	
555.258	68.38	
556.029	71.38	
556.801	79.38	
557.572	80.38	
558.343	88.38	
559.114	127.38	
559.886	241.38	
560.657	490.38	
561.427	901.38	
562.198	1491.38	
562.969	2162.38	
563.74	2833.38	
564.51	3492.38	
565.281	4026.38	
566.051	4445.38	
566.822	4627.38	
567.592	4711.38	
568.362	4675.38	
569.132	4549.38	
569.902	4251.38	
570.672	3731.38	
571.442	3151.38	
572.212	2473.38	
572.982	1775.38	
573.751	1181.38	
574.521	695.38	
575.29	359.38	
576.06	164.38	
576.829	94.38	
577.598	84.38	
578.367	75.38	
579.136	66.38	
579.905	70.38	
580.674	72.38	
581.443	70.38	
582.212	60.38	
582.981	65.38	
583.749	58.38	
584.518	62.38	
585.286	68.38	
586.054	70.38	
586.823	59.38	
587.591	57.38	
588.359	60.38	
589.127	58.38	
589.895	59.38	
590.663	62.38	
591.431	57.38	
592.198	62.38	
592.966	57.38	
593.734	63.38	
594.501	55.38	
595.268	55.38	
596.036	58.38	
596.803	52.38	
597.57	52.38	
598.337	52.38	
599.104	51.38	
599.871	53.38	
600.638	55.38	
601.405	61.38	
602.171	50.38	
602.938	61.38	
603.704	52.38	
604.471	47.38	
605.237	58.38	
606.004	53.38	
606.77	55.38	
607.536	52.38	
608.302	55.38	
609.068	58.38	
609.834	51.38	
610.599	56.38	
611.365	50.38	
612.131	54.38	
612.896	54.38	
613.662	59.38	
614.427	53.38	
615.193	50.38	
615.958	56.38	
616.723	54.38	
617.488	46.38	
618.253	52.38	
619.018	49.38	
619.783	52.38	
620.548	55.38	
621.312	51.38	
622.077	49.38	
622.842	49.38	
623.606	65.38	
624.37	53.38	
625.135	56.38	
625.899	50.38	
626.663	47.38	
627.427	52.38	
628.191	54.38	
628.955	60.38	
629.719	52.38	
630.483	51.38	
631.246	48.38	
632.01	51.38	
632.773	57.38	
633.537	49.38	
634.3	53.38	
635.063	51.38	
635.827	43.38	
636.59	49.38	
637.353	52.38	
638.116	57.38	
638.879	44.38	
639.641	49.38	
640.404	52.38	
641.167	50.38	
641.929	53.38	
642.692	46.38	
643.454	53.38	
644.216	50.38	
644.979	56.38	
645.741	52.38	
646.503	54.38	
647.265	54.38	
648.027	59.38	
648.789	47.38	
649.551	54.38	
650.312	53.38	
651.074	50.38	
651.835	54.38	
652.597	50.38	
653.358	57.38	
654.12	51.38	
654.881	49.38	
655.642	50.38	
656.403	46.38	
657.164	50.38	
657.925	51.38	
658.686	55.38	
659.447	51.38	
660.207	45.38	
660.968	52.38	
661.728	52.38	
662.489	51.38	
663.249	51.38	
664.01	49.38	
664.77	55.38	
665.53	57.38	
666.29	45.38	
667.05	53.38	
667.81	52.38	
668.57	46.38	
669.329	53.38	
670.089	48.38	
670.849	54.38	
671.608	56.38	
672.368	46.38	
673.127	54.38	
673.886	45.38	
674.646	38.38	
675.405	51.38	
676.164	52.38	
676.923	55.38	
677.682	61.38	
678.44	56.38	
679.199	46.38	
679.958	63.38	
680.717	53.38	
681.475	46.38	
682.233	49.38	
682.992	47.38	
683.75	49.38	
684.508	52.38	
685.266	49.38	
686.024	58.38	
686.782	50.38	
687.54	53.38	
688.298	52.38	
689.056	58.38	
689.814	49.38	
690.571	53.38	
691.329	48.38	
692.086	50.38	
692.843	49.38	
693.601	51.38	
694.358	49.38	
695.115	50.38	
695.872	49.38	
696.629	48.38	
697.386	55.38	
698.143	58.38	
698.9	48.38	
699.656	53.38	
700.413	52.38	
701.169	54.38	
701.926	49.38	
702.682	51.38	
703.438	46.38	
704.195	57.38	
704.951	50.38	
705.707	44.38	
706.463	47.38	
707.219	48.38	
707.974	46.38	
708.73	46.38	
709.486	45.38	
710.241	48.38	
710.997	49.38	
711.752	50.38	
712.508	50.38	
713.263	50.38	
714.018	50.38	
714.773	47.38	
715.528	50.38	
716.283	54.38	
717.038	47.38	
717.793	52.38	
718.548	51.38	
719.303	50.38	
720.057	50.38	
720.812	45.38	
721.566	48.38	
722.321	45.38	
723.075	51.38	
723.829	51.38	
724.583	47.38	
725.337	47.38	
726.091	59.38	
726.845	50.38	
727.599	45.38	
728.353	51.38	
729.106	42.38	
729.86	52.38	
730.614	45.38	
731.367	364.38	
732.12	49.38	
732.874	47.38	
733.627	49.38	
734.38	49.38	
735.133	54.38	
735.886	50.38	
736.639	48.38	
737.392	51.38	
738.145	49.38	
738.897	53.38	
739.65	46.38	
740.403	54.38	
741.155	48.38	
741.907	50.38	
742.66	52.38	
743.412	48.38	
744.164	56.38	
744.916	45.38	
745.668	51.38	
746.42	56.38	
747.172	51.38	
747.924	46.38	
748.676	39.38	
749.427	50.38	
750.179	54.38	
750.93	52.38	
751.682	44.38	
752.433	50.38	
753.184	54.38	
753.935	51.38	
754.687	46.38	
755.438	49.38	
756.189	48.38	
756.939	44.38	
757.69	40.38	
758.441	49.38	
759.192	50.38	
759.942	54.38	
760.693	53.38	
761.443	52.38	
762.194	41.38	
762.944	43.38	
763.694	50.38	
764.444	47.38	
765.194	46.38	
765.944	50.38	
766.694	48.38	
767.444	57.38	
768.194	53.38	
768.943	46.38	
769.693	51.38	
770.443	55.38	
771.192	50.38	
771.941	44.38	
772.691	51.38	
773.44	46.38	
774.189	52.38	
774.938	51.38	
775.687	43.38	
776.436	52.38	
777.185	51.38	
777.934	48.38	
778.683	49.38	
779.431	47.38	
780.18	54.38	
780.928	53.38	
781.677	48.38	
782.425	51.38	
783.173	56.38	
783.922	55.38	
784.67	56.38	
785.418	55.38	
786.166	52.38	
786.914	48.38	
787.661	50.38	
788.409	47.38	
789.157	47.38	
789.904	46.38	
790.652	57.38	
791.399	48.38	
792.147	48.38	
792.894	52.38	
793.641	50.38	
794.388	349.38	
795.136	51.38	
795.883	52.38	
796.629	52.38	
797.376	45.38	
798.123	48.38	
798.87	40.38	
799.616	47.38	
800.363	53.38	
801.109	55.38	
801.856	51.38	
802.602	42.38	
803.349	53.38	
804.095	59.38	
804.841	50.38	
805.587	53.38	
806.333	50.38	
807.079	52.38	
807.825	50.38	
808.57	52.38	
809.316	57.38	
810.062	54.38	
810.807	54.38	
811.553	57.38	
812.298	49.38	
813.043	50.38	
813.788	50.38	
814.534	49.38	
815.279	57.38	
816.024	63.38	
816.769	52.38	
817.514	50.38	
818.258	52.38	
819.003	54.38	
819.748	1003.38	
820.492	48.38	
821.237	282.38	
821.981	46.38	
822.726	58.38	
823.47	54.38	
824.214	52.38	
824.958	53.38	
825.702	50.38	
826.446	52.38	
827.19	54.38	
827.934	58.38	
828.678	49.38	
829.421	60.38	
830.165	52.38	
830.909	54.38	
831.652	51.38	
832.395	51.38	
833.139	51.38	
833.882	59.38	
834.625	54.38	
835.368	53.38	
836.111	43.38	
836.854	49.38	
837.597	52.38	
838.34	54.38	
839.083	52.38	
839.825	52.38	
840.568	45.38	
841.311	50.38	
842.053	56.38	
842.795	49.38	
843.538	52.38	
844.28	44.38	
845.022	51.38	
845.764	62.38	
846.506	45.38	
847.248	53.38	
847.99	49.38	
848.732	53.38	
849.474	50.38	
850.215	41.38	
850.957	45.38	
851.698	49.38	
852.44	56.38	
853.181	46.38	
853.922	54.38	
854.664	50.38	
855.405	55.38	
856.146	45.38	
856.887	48.38	
857.628	59.38	
858.369	47.38	
859.109	58.38	
859.85	47.38	
860.591	59.38	
861.331	45.38	
862.072	47.38	
862.812	37.38	
863.553	44.38	
864.293	54.38	
865.033	48.38	
865.773	53.38	
866.513	41.38	
867.253	44.38	
867.993	49.38	
868.733	45.38	
869.473	53.38	
870.213	52.38	
870.952	43.38	
871.692	51.38	
872.431	50.38	
873.171	46.38	
873.91	50.38	
874.649	44.38	
875.388	49.38	
876.128	46.38	
876.867	43.38	
877.606	49.38	
878.345	50.38	
879.083	47.38	
879.822	44.38	
880.561	48.38	
881.299	46.38	
882.038	45.38	
882.777	54.38	
883.515	50.38	
884.253	542.38	
884.992	47.38	
885.73	51.38	
886.468	47.38	
887.206	56.38	
887.944	53.38	
888.682	49.38	
889.42	51.38	
890.157	50.38	
890.895	46.38	
891.633	92.38	
892.37	50.38	
893.108	51.38	
893.845	45.38	
894.583	51.38	
895.32	44.38	
896.057	45.38	
896.794	52.38	
897.531	55.38	
898.268	50.38	
899.005	46.38	
899.742	49.38	
900.479	48.38	
901.215	46.38	
901.952	45.38	
902.689	46.38	
903.425	40.38	
904.162	42.38	
904.898	46.38	
905.634	54.38	
906.37	49.38	
907.106	43.38	
907.843	51.38	
908.579	48.38	
909.314	38.38	
910.05	51.38	
910.786	45.38	
911.522	41.38	
912.257	49.38	
912.993	50.38	
913.728	44.38	
914.464	48.38	
915.199	47.38	
915.935	44.38	
916.67	46.38	
917.405	51.38	
918.14	50.38	
918.875	50.38	
919.61	51.38	
920.345	52.38	
921.08	54.38	
921.814	51.38	
922.549	43.38	
923.284	48.38	
924.018	48.38	
924.752	55.38	
925.487	46.38	
926.221	52.38	
926.955	50.38	
927.69	47.38	
928.424	48.38	
929.158	51.38	
929.892	44.38	
930.625	53.38	
931.359	56.38	
932.093	47.38	
932.827	50.38	
933.56	43.38	
934.294	50.38	
935.027	48.38	
935.761	52.38	
936.494	49.38	
937.227	48.38	
937.96	54.38	
938.693	52.38	
939.426	45.38	
940.159	53.38	
940.892	49.38	
941.625	56.38	
942.358	52.38	
943.091	47.38	
943.823	44.38	
944.556	44.38	
945.288	49.38	
946.021	50.38	
946.753	51.38	
947.485	50.38	
948.217	50.38	
948.95	47.38	
949.682	43.38	
950.414	43.38	
951.146	46.38	
951.877	47.38	
952.609	46.38	
953.341	49.38	
954.073	57.38	
954.804	46.38	
955.536	47.38	
956.267	51.38	
956.998	50.38	
957.73	44.38	
958.461	45.38	
959.192	45.38	
959.923	49.38	
960.654	48.38	
961.385	47.38	
962.116	49.38	
962.847	45.38	
963.578	49.38	
964.308	47.38	
965.039	46.38	
965.769	50.38	
966.5	49.38	
967.23	49.38	
967.961	43.38	
968.691	52.38	
969.421	44.38	
970.151	50.38	
970.881	47.38	
971.611	54.38	
972.341	49.38	
973.071	54.38	
973.801	54.38	
974.53	46.38	
975.26	45.38	
975.99	48.38	
976.719	57.38	
977.448	42.38	
978.178	49.38	
978.907	49.38	
979.636	41.38	
980.365	56.38	
981.095	49.38	
981.824	49.38	
982.553	50.38	
983.281	40.38	
984.01	-1.62	
984.739	-1.62	
985.468	-4.62	
986.196	-8.62	
986.925	61.38	
987.653	45.38	
988.382	53.38	
989.11	52.38	
989.838	48.38	
990.566	53.38	
991.295	43.38	
992.023	54.38	
992.751	52.38	
993.478	50.38	
994.206	49.38	
994.934	52.38	
995.662	0.38	
996.389	-4.62	
997.117	10.38	
997.845	10.38	

