197.938	48.12	
198.749	49.12	
199.559	41.12	
200.369	41.12	
201.179	41.12	
201.988	45.12	
202.798	47.12	
203.608	44.12	
204.417	46.12	
205.227	40.12	
206.036	48.12	
206.846	48.12	
207.655	49.12	
208.464	48.12	
209.273	47.12	
210.082	44.12	
210.891	43.12	
211.7	48.12	
212.508	45.12	
213.317	44.12	
214.125	41.12	
214.934	42.12	
215.742	40.12	
216.55	45.12	
217.359	41.12	
218.167	42.12	
218.975	45.12	
219.782	41.12	
220.59	41.12	
221.398	36.12	
222.206	54.12	
223.013	46.12	
223.82	40.12	
224.628	44.12	
225.435	47.12	
226.242	49.12	
227.049	45.12	
227.856	39.12	
228.663	44.12	
229.47	47.12	
230.277	45.12	
231.083	47.12	
231.89	40.12	
232.696	51.12	
233.502	43.12	
234.309	43.12	
235.115	52.12	
235.921	47.12	
236.727	39.12	
237.533	53.12	
238.339	47.12	
239.144	55.12	
239.95	56.12	
240.756	45.12	
241.561	48.12	
242.366	43.12	
243.172	48.12	
243.977	50.12	
244.782	45.12	
245.587	49.12	
246.392	44.12	
247.197	50.12	
248.001	42.12	
248.806	42.12	
249.611	41.12	
250.415	48.12	
251.219	48.12	
252.024	48.12	
252.828	43.12	
253.632	41.12	
254.436	45.12	
255.24	48.12	
256.044	47.12	
256.848	43.12	
257.651	43.12	
258.455	47.12	
259.258	43.12	
260.062	3430.12	
260.865	46.12	
261.668	48.12	
262.471	45.12	
263.274	48.12	
264.077	44.12	
264.88	47.12	
265.683	40.12	
266.486	44.12	
267.288	47.12	
268.091	41.12	
268.893	46.12	
269.696	47.12	
270.498	44.12	
271.3	44.12	
272.102	52.12	
272.904	46.12	
273.706	43.12	
274.508	40.12	
275.309	49.12	
276.111	48.12	
276.913	42.12	
277.714	44.12	
278.515	44.12	
279.317	52.12	
280.118	41.12	
280.919	47.12	
281.72	45.12	
282.521	50.12	
283.322	43.12	
284.122	47.12	
284.923	49.12	
285.724	42.12	
286.524	46.12	
287.325	51.12	
288.125	45.12	
288.925	46.12	
289.725	46.12	
290.525	47.12	
291.325	48.12	
292.125	45.12	
292.925	46.12	
293.724	43.12	
294.524	42.12	
295.324	44.12	
296.123	48.12	
296.922	46.12	
297.722	65.12	
298.521	48.12	
299.32	54.12	
300.119	36.12	
300.918	44.12	
301.716	52.12	
302.515	49.12	
303.314	48.12	
304.112	42.12	
304.911	49.12	
305.709	45.12	
306.507	50.12	
307.306	48.12	
308.104	48.12	
308.902	46.12	
309.7	48.12	
310.498	47.12	
311.295	42.12	
312.093	53.12	
312.891	50.12	
313.688	47.12	
314.485	51.12	
315.283	55.12	
316.08	50.12	
316.877	46.12	
317.674	46.12	
318.471	45.12	
319.268	47.12	
320.065	53.12	
320.862	48.12	
321.658	45.12	
322.455	49.12	
323.251	38.12	
324.047	39.12	
324.844	55.12	
325.64	48.12	
326.436	50.12	
327.232	44.12	
328.028	50.12	
328.824	44.12	
329.62	51.12	
330.415	57.12	
331.211	44.12	
332.006	46.12	
332.802	56.12	
333.597	42.12	
334.392	50.12	
335.187	52.12	
335.982	42.12	
336.777	50.12	
337.572	43.12	
338.367	48.12	
339.162	51.12	
339.956	48.12	
340.751	47.12	
341.545	49.12	
342.34	49.12	
343.134	43.12	
343.928	50.12	
344.722	53.12	
345.516	45.12	
346.31	40.12	
347.104	48.12	
347.898	45.12	
348.691	46.12	
349.485	43.12	
350.278	41.12	
351.072	55.12	
351.865	458.12	
352.658	47.12	
353.452	52.12	
354.245	43.12	
355.038	49.12	
355.83	49.12	
356.623	44.12	
357.416	48.12	
358.209	46.12	
359.001	42.12	
359.794	49.12	
360.586	49.12	
361.378	48.12	
362.17	48.12	
362.963	47.12	
363.755	54.12	
364.546	39.12	
365.338	52.12	
366.13	51.12	
366.922	48.12	
367.713	50.12	
368.505	44.12	
369.296	44.12	
370.088	45.12	
370.879	42.12	
371.67	47.12	
372.461	48.12	
373.252	48.12	
374.043	55.12	
374.834	43.12	
375.625	52.12	
376.415	54.12	
377.206	51.12	
377.996	48.12	
378.787	51.12	
379.577	40.12	
380.367	39.12	
381.157	45.12	
381.947	47.12	
382.737	49.12	
383.527	50.12	
384.317	55.12	
385.107	43.12	
385.896	54.12	
386.686	48.12	
387.475	48.12	
388.265	46.12	
389.054	64.12	
389.843	48.12	
390.632	46.12	
391.421	46.12	
392.21	48.12	
392.999	48.12	
393.788	48.12	
394.576	52.12	
395.365	50.12	
396.154	42.12	
396.942	47.12	
397.73	45.12	
398.519	53.12	
399.307	45.12	
400.095	45.12	
400.883	56.12	
401.671	46.12	
402.459	48.12	
403.246	46.12	
404.034	47.12	
404.822	47.12	
405.609	48.12	
406.396	58.12	
407.184	40.12	
407.971	48.12	
408.758	51.12	
409.545	39.12	
410.332	51.12	
411.119	49.12	
411.906	41.12	
412.693	52.12	
413.479	50.12	
414.266	42.12	
415.052	52.12	
415.839	49.12	
416.625	44.12	
417.411	48.12	
418.197	50.12	
418.983	57.12	
419.769	47.12	
420.555	46.12	
421.341	45.12	
422.127	47.12	
422.912	46.12	
423.698	54.12	
424.483	47.12	
425.269	49.12	
426.054	39.12	
426.839	53.12	
427.624	47.12	
428.409	49.12	
429.194	44.12	
429.979	52.12	
430.764	49.12	
431.549	51.12	
432.333	44.12	
433.118	45.12	
433.902	53.12	
434.687	43.12	
435.471	49.12	
436.255	49.12	
437.039	45.12	
437.823	50.12	
438.607	48.12	
439.391	51.12	
440.175	50.12	
440.958	49.12	
441.742	44.12	
442.526	44.12	
443.309	49.12	
444.092	53.12	
444.876	49.12	
445.659	49.12	
446.442	51.12	
447.225	49.12	
448.008	53.12	
448.791	55.12	
449.573	60.12	
450.356	53.12	
451.139	51.12	
451.921	46.12	
452.704	49.12	
453.486	45.12	
454.268	48.12	
455.05	50.12	
455.833	46.12	
456.615	43.12	
457.396	47.12	
458.178	50.12	
458.96	44.12	
459.742	46.12	
460.523	46.12	
461.305	47.12	
462.086	54.12	
462.868	56.12	
463.649	51.12	
464.43	47.12	
465.211	54.12	
465.992	45.12	
466.773	55.12	
467.554	48.12	
468.335	48.12	
469.115	50.12	
469.896	42.12	
470.676	40.12	
471.457	48.12	
472.237	50.12	
473.018	50.12	
473.798	53.12	
474.578	51.12	
475.358	49.12	
476.138	43.12	
476.918	43.12	
477.697	50.12	
478.477	53.12	
479.257	48.12	
480.036	46.12	
480.816	44.12	
481.595	52.12	
482.374	47.12	
483.153	49.12	
483.932	48.12	
484.711	47.12	
485.49	47.12	
486.269	45.12	
487.048	45.12	
487.827	54.12	
488.605	45.12	
489.384	46.12	
490.162	48.12	
490.941	52.12	
491.719	47.12	
492.497	47.12	
493.275	46.12	
494.053	47.12	
494.831	45.12	
495.609	50.12	
496.387	52.12	
497.164	49.12	
497.942	49.12	
498.72	51.12	
499.497	47.12	
500.274	43.12	
501.052	50.12	
501.829	54.12	
502.606	40.12	
503.383	50.12	
504.16	52.12	
504.937	49.12	
505.714	38.12	
506.49	52.12	
507.267	44.12	
508.043	48.12	
508.82	52.12	
509.596	45.12	
510.373	48.12	
511.149	43.12	
511.925	47.12	
512.701	51.12	
513.477	51.12	
514.253	51.12	
515.029	45.12	
515.804	51.12	
516.58	59.12	
517.356	49.12	
518.131	57.12	
518.906	44.12	
519.682	47.12	
520.457	51.12	
521.232	48.12	
522.007	50.12	
522.782	40.12	
523.557	46.12	
524.332	45.12	
525.107	53.12	
525.881	45.12	
526.656	44.12	
527.43	48.12	
528.205	48.12	
528.979	51.12	
529.753	45.12	
530.527	53.12	
531.302	45.12	
532.076	48.12	
532.849	48.12	
533.623	48.12	
534.397	51.12	
535.171	47.12	
535.944	52.12	
536.718	45.12	
537.491	60.12	
538.265	45.12	
539.038	49.12	
539.811	48.12	
540.584	53.12	
541.357	47.12	
542.13	54.12	
542.903	56.12	
543.676	50.12	
544.449	50.12	
545.221	53.12	
545.994	50.12	
546.766	51.12	
547.539	47.12	
548.311	52.12	
549.083	51.12	
549.855	44.12	
550.627	58.12	
551.399	50.12	
552.171	56.12	
552.943	50.12	
553.715	48.12	
554.486	51.12	
555.258	47.12	
556.029	54.12	
556.801	58.12	
557.572	50.12	
558.343	54.12	
559.114	58.12	
559.886	58.12	
560.657	55.12	
561.427	50.12	
562.198	55.12	
562.969	59.12	
563.74	55.12	
564.51	52.12	
565.281	59.12	
566.051	52.12	
566.822	55.12	
567.592	51.12	
568.362	56.12	
569.132	49.12	
569.902	60.12	
570.672	49.12	
571.442	51.12	
572.212	54.12	
572.982	55.12	
573.751	52.12	
574.521	53.12	
575.29	59.12	
576.06	56.12	
576.829	49.12	
577.598	53.12	
578.367	52.12	
579.136	54.12	
579.905	58.12	
580.674	60.12	
581.443	61.12	
582.212	61.12	
582.981	64.12	
583.749	64.12	
584.518	65.12	
585.286	74.12	
586.054	79.12	
586.823	71.12	
587.591	68.12	
588.359	82.12	
589.127	114.12	
589.895	216.12	
590.663	431.12	
591.431	791.12	
592.198	1288.12	
592.966	1889.12	
593.734	2501.12	
594.501	3099.12	
595.268	3585.12	
596.036	3958.12	
596.803	4192.12	
597.57	4249.12	
598.337	4188.12	
599.104	4071.12	
599.871	3857.12	
600.638	3478.12	
601.405	2987.12	
602.171	2371.12	
602.938	1789.12	
603.704	1214.12	
604.471	721.12	
605.237	385.12	
606.004	175.12	
606.77	102.12	
607.536	81.12	
608.302	73.12	
609.068	75.12	
609.834	66.12	
610.599	66.12	
611.365	63.12	
612.131	66.12	
612.896	66.12	
613.662	65.12	
614.427	60.12	
615.193	53.12	
615.958	60.12	
616.723	55.12	
617.488	45.12	
618.253	58.12	
619.018	57.12	
619.783	54.12	
620.548	60.12	
621.312	53.12	
622.077	48.12	
622.842	54.12	
623.606	66.12	
624.37	52.12	
625.135	57.12	
625.899	58.12	
626.663	48.12	
627.427	53.12	
628.191	53.12	
628.955	57.12	
629.719	52.12	
630.483	53.12	
631.246	47.12	
632.01	53.12	
632.773	60.12	
633.537	46.12	
634.3	50.12	
635.063	52.12	
635.827	46.12	
636.59	51.12	
637.353	55.12	
638.116	57.12	
638.879	43.12	
639.641	48.12	
640.404	50.12	
641.167	51.12	
641.929	54.12	
642.692	44.12	
643.454	47.12	
644.216	49.12	
644.979	53.12	
645.741	53.12	
646.503	53.12	
647.265	52.12	
648.027	63.12	
648.789	47.12	
649.551	53.12	
650.312	51.12	
651.074	52.12	
651.835	51.12	
652.597	50.12	
653.358	52.12	
654.12	50.12	
654.881	47.12	
655.642	53.12	
656.403	47.12	
657.164	52.12	
657.925	49.12	
658.686	54.12	
659.447	49.12	
660.207	48.12	
660.968	53.12	
661.728	57.12	
662.489	50.12	
663.249	51.12	
664.01	45.12	
664.77	57.12	
665.53	54.12	
666.29	43.12	
667.05	49.12	
667.81	46.12	
668.57	47.12	
669.329	50.12	
670.089	43.12	
670.849	52.12	
671.608	52.12	
672.368	43.12	
673.127	54.12	
673.886	47.12	
674.646	42.12	
675.405	52.12	
676.164	51.12	
676.923	53.12	
677.682	61.12	
678.44	52.12	
679.199	51.12	
679.958	57.12	
680.717	50.12	
681.475	50.12	
682.233	45.12	
682.992	39.12	
683.75	46.12	
684.508	52.12	
685.266	49.12	
686.024	57.12	
686.782	52.12	
687.54	55.12	
688.298	52.12	
689.056	54.12	
689.814	40.12	
690.571	49.12	
691.329	53.12	
692.086	52.12	
692.843	45.12	
693.601	54.12	
694.358	55.12	
695.115	49.12	
695.872	48.12	
696.629	48.12	
697.386	56.12	
698.143	54.12	
698.9	47.12	
699.656	47.12	
700.413	45.12	
701.169	52.12	
701.926	47.12	
702.682	48.12	
703.438	49.12	
704.195	56.12	
704.951	45.12	
705.707	47.12	
706.463	45.12	
707.219	46.12	
707.974	44.12	
708.73	41.12	
709.486	44.12	
710.241	47.12	
710.997	45.12	
711.752	53.12	
712.508	52.12	
713.263	47.12	
714.018	48.12	
714.773	49.12	
715.528	54.12	
716.283	51.12	
717.038	44.12	
717.793	47.12	
718.548	44.12	
719.303	48.12	
720.057	46.12	
720.812	47.12	
721.566	45.12	
722.321	50.12	
723.075	48.12	
723.829	54.12	
724.583	45.12	
725.337	47.12	
726.091	51.12	
726.845	48.12	
727.599	41.12	
728.353	52.12	
729.106	42.12	
729.86	52.12	
730.614	43.12	
731.367	365.12	
732.12	49.12	
732.874	45.12	
733.627	49.12	
734.38	54.12	
735.133	47.12	
735.886	45.12	
736.639	48.12	
737.392	47.12	
738.145	44.12	
738.897	53.12	
739.65	49.12	
740.403	46.12	
741.155	52.12	
741.907	49.12	
742.66	59.12	
743.412	44.12	
744.164	56.12	
744.916	43.12	
745.668	49.12	
746.42	54.12	
747.172	50.12	
747.924	54.12	
748.676	45.12	
749.427	46.12	
750.179	50.12	
750.93	54.12	
751.682	43.12	
752.433	51.12	
753.184	54.12	
753.935	44.12	
754.687	42.12	
755.438	51.12	
756.189	46.12	
756.939	46.12	
757.69	47.12	
758.441	50.12	
759.192	51.12	
759.942	51.12	
760.693	51.12	
761.443	53.12	
762.194	40.12	
762.944	44.12	
763.694	48.12	
764.444	47.12	
765.194	50.12	
765.944	47.12	
766.694	53.12	
767.444	52.12	
768.194	52.12	
768.943	41.12	
769.693	54.12	
770.443	51.12	
771.192	53.12	
771.941	39.12	
772.691	48.12	
773.44	49.12	
774.189	49.12	
774.938	48.12	
775.687	46.12	
776.436	48.12	
777.185	54.12	
777.934	52.12	
778.683	47.12	
779.431	48.12	
780.18	48.12	
780.928	46.12	
781.677	43.12	
782.425	48.12	
783.173	51.12	
783.922	51.12	
784.67	56.12	
785.418	53.12	
786.166	49.12	
786.914	46.12	
787.661	51.12	
788.409	52.12	
789.157	43.12	
789.904	46.12	
790.652	52.12	
791.399	43.12	
792.147	48.12	
792.894	54.12	
793.641	49.12	
794.388	333.12	
795.136	49.12	
795.883	47.12	
796.629	51.12	
797.376	41.12	
798.123	49.12	
798.87	40.12	
799.616	42.12	
800.363	52.12	
801.109	52.12	
801.856	48.12	
802.602	43.12	
803.349	56.12	
804.095	50.12	
804.841	48.12	
805.587	50.12	
806.333	48.12	
807.079	49.12	
807.825	47.12	
808.57	42.12	
809.316	56.12	
810.062	52.12	
810.807	49.12	
811.553	54.12	
812.298	48.12	
813.043	53.12	
813.788	54.12	
814.534	44.12	
815.279	57.12	
816.024	53.12	
816.769	48.12	
817.514	51.12	
818.258	50.12	
819.003	55.12	
819.748	1007.12	
820.492	48.12	
821.237	291.12	
821.981	47.12	
822.726	53.12	
823.47	55.12	
824.214	54.12	
824.958	48.12	
825.702	52.12	
826.446	47.12	
827.19	53.12	
827.934	54.12	
828.678	50.12	
829.421	56.12	
830.165	54.12	
830.909	50.12	
831.652	48.12	
832.395	49.12	
833.139	55.12	
833.882	59.12	
834.625	53.12	
835.368	48.12	
836.111	41.12	
836.854	48.12	
837.597	47.12	
838.34	53.12	
839.083	52.12	
839.825	54.12	
840.568	46.12	
841.311	51.12	
842.053	52.12	
842.795	47.12	
843.538	54.12	
844.28	45.12	
845.022	47.12	
845.764	63.12	
846.506	47.12	
847.248	45.12	
847.99	50.12	
848.732	51.12	
849.474	44.12	
850.215	40.12	
850.957	43.12	
851.698	48.12	
852.44	50.12	
853.181	45.12	
853.922	53.12	
854.664	43.12	
855.405	53.12	
856.146	42.12	
856.887	49.12	
857.628	48.12	
858.369	43.12	
859.109	52.12	
859.85	47.12	
860.591	51.12	
861.331	47.12	
862.072	45.12	
862.812	41.12	
863.553	42.12	
864.293	54.12	
865.033	46.12	
865.773	56.12	
866.513	41.12	
867.253	46.12	
867.993	50.12	
868.733	47.12	
869.473	50.12	
870.213	55.12	
870.952	42.12	
871.692	45.12	
872.431	44.12	
873.171	46.12	
873.91	44.12	
874.649	38.12	
875.388	48.12	
876.128	47.12	
876.867	44.12	
877.606	50.12	
878.345	47.12	
879.083	43.12	
879.822	43.12	
880.561	44.12	
881.299	47.12	
882.038	45.12	
882.777	49.12	
883.515	50.12	
884.253	548.12	
884.992	49.12	
885.73	44.12	
886.468	53.12	
887.206	56.12	
887.944	52.12	
888.682	49.12	
889.42	44.12	
890.157	47.12	
890.895	42.12	
891.633	88.12	
892.37	49.12	
893.108	49.12	
893.845	47.12	
894.583	48.12	
895.32	38.12	
896.057	46.12	
896.794	45.12	
897.531	48.12	
898.268	50.12	
899.005	46.12	
899.742	46.12	
900.479	46.12	
901.215	47.12	
901.952	48.12	
902.689	44.12	
903.425	40.12	
904.162	46.12	
904.898	49.12	
905.634	53.12	
906.37	51.12	
907.106	43.12	
907.843	45.12	
908.579	45.12	
909.314	38.12	
910.05	45.12	
910.786	47.12	
911.522	42.12	
912.257	51.12	
912.993	51.12	
913.728	46.12	
914.464	46.12	
915.199	48.12	
915.935	42.12	
916.67	47.12	
917.405	47.12	
918.14	43.12	
918.875	46.12	
919.61	51.12	
920.345	54.12	
921.08	54.12	
921.814	48.12	
922.549	47.12	
923.284	53.12	
924.018	43.12	
924.752	54.12	
925.487	45.12	
926.221	51.12	
926.955	49.12	
927.69	48.12	
928.424	47.12	
929.158	48.12	
929.892	46.12	
930.625	52.12	
931.359	52.12	
932.093	53.12	
932.827	45.12	
933.56	44.12	
934.294	42.12	
935.027	48.12	
935.761	50.12	
936.494	46.12	
937.227	42.12	
937.96	53.12	
938.693	50.12	
939.426	38.12	
940.159	51.12	
940.892	46.12	
941.625	49.12	
942.358	50.12	
943.091	44.12	
943.823	43.12	
944.556	41.12	
945.288	46.12	
946.021	48.12	
946.753	48.12	
947.485	49.12	
948.217	45.12	
948.95	46.12	
949.682	41.12	
950.414	42.12	
951.146	46.12	
951.877	45.12	
952.609	44.12	
953.341	45.12	
954.073	53.12	
954.804	43.12	
955.536	46.12	
956.267	46.12	
956.998	46.12	
957.73	43.12	
958.461	46.12	
959.192	45.12	
959.923	47.12	
960.654	46.12	
961.385	46.12	
962.116	47.12	
962.847	45.12	
963.578	48.12	
964.308	46.12	
965.039	44.12	
965.769	44.12	
966.5	50.12	
967.23	44.12	
967.961	42.12	
968.691	52.12	
969.421	39.12	
970.151	54.12	
970.881	44.12	
971.611	48.12	
972.341	51.12	
973.071	50.12	
973.801	51.12	
974.53	43.12	
975.26	44.12	
975.99	50.12	
976.719	48.12	
977.448	47.12	
978.178	45.12	
978.907	47.12	
979.636	41.12	
980.365	50.12	
981.095	56.12	
981.824	48.12	
982.553	47.12	
983.281	48.12	
984.01	-1.88	
984.739	-2.88	
985.468	-4.88	
986.196	-8.88	
986.925	58.12	
987.653	46.12	
988.382	54.12	
989.11	46.12	
989.838	47.12	
990.566	56.12	
991.295	42.12	
992.023	52.12	
992.751	54.12	
993.478	49.12	
994.206	49.12	
994.934	48.12	
995.662	-1.88	
996.389	-1.88	
997.117	10.12	
997.845	12.12	

