197.938	47.25	
198.749	44.25	
199.559	43.25	
200.369	45.25	
201.179	45.25	
201.988	45.25	
202.798	52.25	
203.608	43.25	
204.417	45.25	
205.227	43.25	
206.036	45.25	
206.846	48.25	
207.655	49.25	
208.464	44.25	
209.273	50.25	
210.082	42.25	
210.891	41.25	
211.7	46.25	
212.508	44.25	
213.317	41.25	
214.125	38.25	
214.934	44.25	
215.742	43.25	
216.55	41.25	
217.359	45.25	
218.167	47.25	
218.975	44.25	
219.782	42.25	
220.59	40.25	
221.398	40.25	
222.206	55.25	
223.013	43.25	
223.82	38.25	
224.628	42.25	
225.435	45.25	
226.242	47.25	
227.049	46.25	
227.856	43.25	
228.663	48.25	
229.47	47.25	
230.277	49.25	
231.083	43.25	
231.89	46.25	
232.696	44.25	
233.502	44.25	
234.309	41.25	
235.115	50.25	
235.921	48.25	
236.727	39.25	
237.533	50.25	
238.339	46.25	
239.144	46.25	
239.95	53.25	
240.756	45.25	
241.561	47.25	
242.366	45.25	
243.172	52.25	
243.977	51.25	
244.782	45.25	
245.587	46.25	
246.392	49.25	
247.197	40.25	
248.001	39.25	
248.806	42.25	
249.611	40.25	
250.415	46.25	
251.219	50.25	
252.024	48.25	
252.828	46.25	
253.632	49.25	
254.436	48.25	
255.24	47.25	
256.044	44.25	
256.848	44.25	
257.651	42.25	
258.455	45.25	
259.258	46.25	
260.062	3583.25	
260.865	45.25	
261.668	47.25	
262.471	40.25	
263.274	48.25	
264.077	40.25	
264.88	47.25	
265.683	40.25	
266.486	46.25	
267.288	51.25	
268.091	42.25	
268.893	44.25	
269.696	51.25	
270.498	43.25	
271.3	51.25	
272.102	49.25	
272.904	45.25	
273.706	47.25	
274.508	44.25	
275.309	51.25	
276.111	50.25	
276.913	42.25	
277.714	45.25	
278.515	40.25	
279.317	48.25	
280.118	43.25	
280.919	49.25	
281.72	47.25	
282.521	51.25	
283.322	46.25	
284.122	45.25	
284.923	50.25	
285.724	46.25	
286.524	46.25	
287.325	51.25	
288.125	40.25	
288.925	46.25	
289.725	44.25	
290.525	48.25	
291.325	46.25	
292.125	45.25	
292.925	51.25	
293.724	43.25	
294.524	41.25	
295.324	39.25	
296.123	42.25	
296.922	44.25	
297.722	65.25	
298.521	48.25	
299.32	58.25	
300.119	43.25	
300.918	49.25	
301.716	57.25	
302.515	44.25	
303.314	51.25	
304.112	42.25	
304.911	56.25	
305.709	48.25	
306.507	52.25	
307.306	48.25	
308.104	43.25	
308.902	49.25	
309.7	49.25	
310.498	49.25	
311.295	40.25	
312.093	52.25	
312.891	54.25	
313.688	47.25	
314.485	46.25	
315.283	55.25	
316.08	46.25	
316.877	47.25	
317.674	47.25	
318.471	39.25	
319.268	46.25	
320.065	48.25	
320.862	49.25	
321.658	47.25	
322.455	53.25	
323.251	41.25	
324.047	41.25	
324.844	50.25	
325.64	40.25	
326.436	47.25	
327.232	45.25	
328.028	47.25	
328.824	43.25	
329.62	53.25	
330.415	54.25	
331.211	45.25	
332.006	48.25	
332.802	50.25	
333.597	47.25	
334.392	49.25	
335.187	48.25	
335.982	47.25	
336.777	53.25	
337.572	45.25	
338.367	51.25	
339.162	46.25	
339.956	50.25	
340.751	48.25	
341.545	49.25	
342.34	52.25	
343.134	41.25	
343.928	48.25	
344.722	50.25	
345.516	43.25	
346.31	43.25	
347.104	47.25	
347.898	46.25	
348.691	47.25	
349.485	44.25	
350.278	45.25	
351.072	57.25	
351.865	466.25	
352.658	52.25	
353.452	51.25	
354.245	47.25	
355.038	48.25	
355.83	47.25	
356.623	47.25	
357.416	47.25	
358.209	44.25	
359.001	48.25	
359.794	44.25	
360.586	50.25	
361.378	52.25	
362.17	39.25	
362.963	47.25	
363.755	51.25	
364.546	44.25	
365.338	51.25	
366.13	49.25	
366.922	48.25	
367.713	45.25	
368.505	44.25	
369.296	49.25	
370.088	37.25	
370.879	40.25	
371.67	43.25	
372.461	40.25	
373.252	46.25	
374.043	54.25	
374.834	41.25	
375.625	52.25	
376.415	53.25	
377.206	51.25	
377.996	44.25	
378.787	54.25	
379.577	43.25	
380.367	38.25	
381.157	46.25	
381.947	43.25	
382.737	49.25	
383.527	54.25	
384.317	51.25	
385.107	44.25	
385.896	51.25	
386.686	49.25	
387.475	49.25	
388.265	49.25	
389.054	66.25	
389.843	46.25	
390.632	46.25	
391.421	47.25	
392.21	50.25	
392.999	43.25	
393.788	47.25	
394.576	51.25	
395.365	49.25	
396.154	47.25	
396.942	48.25	
397.73	46.25	
398.519	51.25	
399.307	47.25	
400.095	44.25	
400.883	53.25	
401.671	46.25	
402.459	46.25	
403.246	46.25	
404.034	47.25	
404.822	46.25	
405.609	49.25	
406.396	53.25	
407.184	38.25	
407.971	46.25	
408.758	55.25	
409.545	36.25	
410.332	50.25	
411.119	46.25	
411.906	43.25	
412.693	52.25	
413.479	53.25	
414.266	46.25	
415.052	49.25	
415.839	47.25	
416.625	47.25	
417.411	49.25	
418.197	54.25	
418.983	51.25	
419.769	51.25	
420.555	48.25	
421.341	46.25	
422.127	49.25	
422.912	46.25	
423.698	52.25	
424.483	46.25	
425.269	45.25	
426.054	45.25	
426.839	55.25	
427.624	44.25	
428.409	48.25	
429.194	48.25	
429.979	51.25	
430.764	48.25	
431.549	47.25	
432.333	47.25	
433.118	42.25	
433.902	50.25	
434.687	49.25	
435.471	44.25	
436.255	48.25	
437.039	47.25	
437.823	44.25	
438.607	45.25	
439.391	47.25	
440.175	48.25	
440.958	47.25	
441.742	44.25	
442.526	42.25	
443.309	45.25	
444.092	52.25	
444.876	50.25	
445.659	43.25	
446.442	49.25	
447.225	49.25	
448.008	47.25	
448.791	51.25	
449.573	55.25	
450.356	48.25	
451.139	55.25	
451.921	40.25	
452.704	47.25	
453.486	48.25	
454.268	51.25	
455.05	51.25	
455.833	44.25	
456.615	52.25	
457.396	46.25	
458.178	51.25	
458.96	43.25	
459.742	48.25	
460.523	49.25	
461.305	46.25	
462.086	51.25	
462.868	58.25	
463.649	48.25	
464.43	44.25	
465.211	51.25	
465.992	42.25	
466.773	54.25	
467.554	48.25	
468.335	49.25	
469.115	50.25	
469.896	44.25	
470.676	41.25	
471.457	49.25	
472.237	53.25	
473.018	49.25	
473.798	45.25	
474.578	56.25	
475.358	46.25	
476.138	42.25	
476.918	46.25	
477.697	45.25	
478.477	49.25	
479.257	45.25	
480.036	46.25	
480.816	45.25	
481.595	52.25	
482.374	46.25	
483.153	55.25	
483.932	44.25	
484.711	47.25	
485.49	47.25	
486.269	44.25	
487.048	41.25	
487.827	51.25	
488.605	45.25	
489.384	44.25	
490.162	50.25	
490.941	54.25	
491.719	48.25	
492.497	47.25	
493.275	47.25	
494.053	46.25	
494.831	43.25	
495.609	46.25	
496.387	50.25	
497.164	52.25	
497.942	49.25	
498.72	46.25	
499.497	48.25	
500.274	42.25	
501.052	49.25	
501.829	52.25	
502.606	45.25	
503.383	47.25	
504.16	50.25	
504.937	49.25	
505.714	46.25	
506.49	51.25	
507.267	42.25	
508.043	49.25	
508.82	56.25	
509.596	45.25	
510.373	49.25	
511.149	44.25	
511.925	45.25	
512.701	49.25	
513.477	53.25	
514.253	46.25	
515.029	46.25	
515.804	50.25	
516.58	54.25	
517.356	49.25	
518.131	57.25	
518.906	42.25	
519.682	51.25	
520.457	47.25	
521.232	48.25	
522.007	52.25	
522.782	45.25	
523.557	46.25	
524.332	44.25	
525.107	48.25	
525.881	49.25	
526.656	43.25	
527.43	47.25	
528.205	46.25	
528.979	42.25	
529.753	46.25	
530.527	52.25	
531.302	49.25	
532.076	46.25	
532.849	44.25	
533.623	47.25	
534.397	46.25	
535.171	49.25	
535.944	58.25	
536.718	44.25	
537.491	62.25	
538.265	43.25	
539.038	49.25	
539.811	49.25	
540.584	47.25	
541.357	46.25	
542.13	55.25	
542.903	53.25	
543.676	43.25	
544.449	47.25	
545.221	51.25	
545.994	49.25	
546.766	45.25	
547.539	46.25	
548.311	49.25	
549.083	45.25	
549.855	44.25	
550.627	51.25	
551.399	50.25	
552.171	56.25	
552.943	52.25	
553.715	47.25	
554.486	50.25	
555.258	44.25	
556.029	45.25	
556.801	49.25	
557.572	42.25	
558.343	43.25	
559.114	51.25	
559.886	50.25	
560.657	42.25	
561.427	42.25	
562.198	44.25	
562.969	50.25	
563.74	49.25	
564.51	45.25	
565.281	52.25	
566.051	46.25	
566.822	50.25	
567.592	49.25	
568.362	48.25	
569.132	47.25	
569.902	59.25	
570.672	46.25	
571.442	50.25	
572.212	51.25	
572.982	50.25	
573.751	52.25	
574.521	50.25	
575.29	52.25	
576.06	51.25	
576.829	47.25	
577.598	45.25	
578.367	47.25	
579.136	41.25	
579.905	52.25	
580.674	52.25	
581.443	52.25	
582.212	45.25	
582.981	51.25	
583.749	48.25	
584.518	51.25	
585.286	56.25	
586.054	57.25	
586.823	50.25	
587.591	48.25	
588.359	54.25	
589.127	49.25	
589.895	55.25	
590.663	51.25	
591.431	49.25	
592.198	54.25	
592.966	52.25	
593.734	58.25	
594.501	55.25	
595.268	50.25	
596.036	51.25	
596.803	43.25	
597.57	49.25	
598.337	45.25	
599.104	47.25	
599.871	55.25	
600.638	53.25	
601.405	52.25	
602.171	47.25	
602.938	59.25	
603.704	45.25	
604.471	45.25	
605.237	57.25	
606.004	51.25	
606.77	53.25	
607.536	51.25	
608.302	53.25	
609.068	54.25	
609.834	47.25	
610.599	52.25	
611.365	49.25	
612.131	51.25	
612.896	53.25	
613.662	55.25	
614.427	51.25	
615.193	51.25	
615.958	52.25	
616.723	53.25	
617.488	46.25	
618.253	49.25	
619.018	52.25	
619.783	48.25	
620.548	53.25	
621.312	49.25	
622.077	48.25	
622.842	46.25	
623.606	57.25	
624.37	49.25	
625.135	54.25	
625.899	53.25	
626.663	45.25	
627.427	58.25	
628.191	48.25	
628.955	53.25	
629.719	50.25	
630.483	49.25	
631.246	44.25	
632.01	49.25	
632.773	57.25	
633.537	45.25	
634.3	46.25	
635.063	46.25	
635.827	43.25	
636.59	47.25	
637.353	53.25	
638.116	53.25	
638.879	45.25	
639.641	50.25	
640.404	48.25	
641.167	46.25	
641.929	51.25	
642.692	44.25	
643.454	50.25	
644.216	48.25	
644.979	51.25	
645.741	52.25	
646.503	52.25	
647.265	52.25	
648.027	63.25	
648.789	44.25	
649.551	53.25	
650.312	44.25	
651.074	51.25	
651.835	47.25	
652.597	49.25	
653.358	48.25	
654.12	51.25	
654.881	48.25	
655.642	51.25	
656.403	47.25	
657.164	50.25	
657.925	48.25	
658.686	51.25	
659.447	49.25	
660.207	43.25	
660.968	53.25	
661.728	54.25	
662.489	50.25	
663.249	52.25	
664.01	47.25	
664.77	52.25	
665.53	52.25	
666.29	41.25	
667.05	53.25	
667.81	46.25	
668.57	46.25	
669.329	49.25	
670.089	49.25	
670.849	49.25	
671.608	51.25	
672.368	40.25	
673.127	57.25	
673.886	46.25	
674.646	42.25	
675.405	53.25	
676.164	52.25	
676.923	50.25	
677.682	55.25	
678.44	49.25	
679.199	47.25	
679.958	61.25	
680.717	52.25	
681.475	43.25	
682.233	50.25	
682.992	42.25	
683.75	49.25	
684.508	53.25	
685.266	47.25	
686.024	52.25	
686.782	49.25	
687.54	54.25	
688.298	50.25	
689.056	53.25	
689.814	43.25	
690.571	52.25	
691.329	47.25	
692.086	49.25	
692.843	51.25	
693.601	51.25	
694.358	52.25	
695.115	43.25	
695.872	48.25	
696.629	43.25	
697.386	54.25	
698.143	54.25	
698.9	45.25	
699.656	49.25	
700.413	48.25	
701.169	53.25	
701.926	46.25	
702.682	53.25	
703.438	49.25	
704.195	56.25	
704.951	44.25	
705.707	40.25	
706.463	44.25	
707.219	42.25	
707.974	40.25	
708.73	41.25	
709.486	49.25	
710.241	47.25	
710.997	49.25	
711.752	48.25	
712.508	46.25	
713.263	52.25	
714.018	46.25	
714.773	45.25	
715.528	51.25	
716.283	50.25	
717.038	42.25	
717.793	43.25	
718.548	48.25	
719.303	49.25	
720.057	48.25	
720.812	43.25	
721.566	44.25	
722.321	46.25	
723.075	47.25	
723.829	45.25	
724.583	42.25	
725.337	46.25	
726.091	53.25	
726.845	51.25	
727.599	42.25	
728.353	52.25	
729.106	46.25	
729.86	55.25	
730.614	40.25	
731.367	387.25	
732.12	46.25	
732.874	40.25	
733.627	48.25	
734.38	47.25	
735.133	48.25	
735.886	46.25	
736.639	49.25	
737.392	49.25	
738.145	43.25	
738.897	54.25	
739.65	49.25	
740.403	51.25	
741.155	49.25	
741.907	48.25	
742.66	52.25	
743.412	45.25	
744.164	54.25	
744.916	47.25	
745.668	48.25	
746.42	54.25	
747.172	48.25	
747.924	50.25	
748.676	43.25	
749.427	45.25	
750.179	50.25	
750.93	50.25	
751.682	45.25	
752.433	53.25	
753.184	50.25	
753.935	46.25	
754.687	43.25	
755.438	51.25	
756.189	44.25	
756.939	44.25	
757.69	44.25	
758.441	49.25	
759.192	48.25	
759.942	47.25	
760.693	49.25	
761.443	52.25	
762.194	40.25	
762.944	40.25	
763.694	50.25	
764.444	46.25	
765.194	47.25	
765.944	51.25	
766.694	52.25	
767.444	56.25	
768.194	47.25	
768.943	42.25	
769.693	53.25	
770.443	56.25	
771.192	59.25	
771.941	56.25	
772.691	75.25	
773.44	77.25	
774.189	86.25	
774.938	92.25	
775.687	92.25	
776.436	93.25	
777.185	87.25	
777.934	75.25	
778.683	60.25	
779.431	51.25	
780.18	54.25	
780.928	51.25	
781.677	44.25	
782.425	52.25	
783.173	49.25	
783.922	47.25	
784.67	58.25	
785.418	50.25	
786.166	54.25	
786.914	48.25	
787.661	47.25	
788.409	49.25	
789.157	46.25	
789.904	49.25	
790.652	53.25	
791.399	49.25	
792.147	54.25	
792.894	52.25	
793.641	49.25	
794.388	318.25	
795.136	49.25	
795.883	43.25	
796.629	51.25	
797.376	40.25	
798.123	44.25	
798.87	43.25	
799.616	44.25	
800.363	56.25	
801.109	56.25	
801.856	52.25	
802.602	40.25	
803.349	53.25	
804.095	56.25	
804.841	51.25	
805.587	47.25	
806.333	49.25	
807.079	50.25	
807.825	48.25	
808.57	45.25	
809.316	59.25	
810.062	48.25	
810.807	54.25	
811.553	55.25	
812.298	51.25	
813.043	51.25	
813.788	50.25	
814.534	47.25	
815.279	54.25	
816.024	54.25	
816.769	51.25	
817.514	50.25	
818.258	51.25	
819.003	51.25	
819.748	995.25	
820.492	49.25	
821.237	286.25	
821.981	45.25	
822.726	53.25	
823.47	50.25	
824.214	52.25	
824.958	45.25	
825.702	52.25	
826.446	49.25	
827.19	52.25	
827.934	57.25	
828.678	54.25	
829.421	55.25	
830.165	51.25	
830.909	48.25	
831.652	46.25	
832.395	49.25	
833.139	49.25	
833.882	59.25	
834.625	52.25	
835.368	50.25	
836.111	41.25	
836.854	48.25	
837.597	50.25	
838.34	50.25	
839.083	49.25	
839.825	50.25	
840.568	42.25	
841.311	55.25	
842.053	51.25	
842.795	42.25	
843.538	46.25	
844.28	41.25	
845.022	48.25	
845.764	58.25	
846.506	44.25	
847.248	45.25	
847.99	50.25	
848.732	51.25	
849.474	47.25	
850.215	39.25	
850.957	40.25	
851.698	43.25	
852.44	54.25	
853.181	43.25	
853.922	50.25	
854.664	49.25	
855.405	57.25	
856.146	45.25	
856.887	47.25	
857.628	53.25	
858.369	41.25	
859.109	53.25	
859.85	44.25	
860.591	49.25	
861.331	47.25	
862.072	42.25	
862.812	38.25	
863.553	42.25	
864.293	53.25	
865.033	41.25	
865.773	48.25	
866.513	41.25	
867.253	47.25	
867.993	49.25	
868.733	42.25	
869.473	48.25	
870.213	52.25	
870.952	41.25	
871.692	45.25	
872.431	47.25	
873.171	45.25	
873.91	45.25	
874.649	43.25	
875.388	47.25	
876.128	42.25	
876.867	42.25	
877.606	49.25	
878.345	44.25	
879.083	43.25	
879.822	41.25	
880.561	43.25	
881.299	47.25	
882.038	49.25	
882.777	44.25	
883.515	50.25	
884.253	496.25	
884.992	48.25	
885.73	44.25	
886.468	46.25	
887.206	51.25	
887.944	46.25	
888.682	47.25	
889.42	50.25	
890.157	51.25	
890.895	49.25	
891.633	88.25	
892.37	50.25	
893.108	47.25	
893.845	49.25	
894.583	46.25	
895.32	42.25	
896.057	41.25	
896.794	44.25	
897.531	49.25	
898.268	44.25	
899.005	45.25	
899.742	48.25	
900.479	46.25	
901.215	49.25	
901.952	43.25	
902.689	45.25	
903.425	41.25	
904.162	45.25	
904.898	45.25	
905.634	53.25	
906.37	49.25	
907.106	40.25	
907.843	53.25	
908.579	44.25	
909.314	35.25	
910.05	45.25	
910.786	42.25	
911.522	44.25	
912.257	47.25	
912.993	43.25	
913.728	45.25	
914.464	46.25	
915.199	44.25	
915.935	39.25	
916.67	49.25	
917.405	51.25	
918.14	50.25	
918.875	48.25	
919.61	53.25	
920.345	55.25	
921.08	49.25	
921.814	48.25	
922.549	44.25	
923.284	48.25	
924.018	43.25	
924.752	51.25	
925.487	50.25	
926.221	48.25	
926.955	54.25	
927.69	44.25	
928.424	46.25	
929.158	48.25	
929.892	45.25	
930.625	50.25	
931.359	53.25	
932.093	47.25	
932.827	42.25	
933.56	45.25	
934.294	43.25	
935.027	48.25	
935.761	49.25	
936.494	45.25	
937.227	48.25	
937.96	44.25	
938.693	51.25	
939.426	43.25	
940.159	54.25	
940.892	53.25	
941.625	51.25	
942.358	51.25	
943.091	45.25	
943.823	46.25	
944.556	43.25	
945.288	39.25	
946.021	47.25	
946.753	43.25	
947.485	47.25	
948.217	47.25	
948.95	43.25	
949.682	45.25	
950.414	45.25	
951.146	43.25	
951.877	45.25	
952.609	48.25	
953.341	46.25	
954.073	51.25	
954.804	46.25	
955.536	45.25	
956.267	46.25	
956.998	46.25	
957.73	45.25	
958.461	44.25	
959.192	42.25	
959.923	48.25	
960.654	43.25	
961.385	49.25	
962.116	48.25	
962.847	45.25	
963.578	50.25	
964.308	41.25	
965.039	45.25	
965.769	49.25	
966.5	46.25	
967.23	47.25	
967.961	47.25	
968.691	49.25	
969.421	40.25	
970.151	48.25	
970.881	42.25	
971.611	53.25	
972.341	50.25	
973.071	53.25	
973.801	51.25	
974.53	41.25	
975.26	46.25	
975.99	45.25	
976.719	49.25	
977.448	42.25	
978.178	47.25	
978.907	49.25	
979.636	42.25	
980.365	50.25	
981.095	51.25	
981.824	49.25	
982.553	46.25	
983.281	43.25	
984.01	3.25	
984.739	-3.75	
985.468	-6.75	
986.196	-4.75	
986.925	60.25	
987.653	47.25	
988.382	48.25	
989.11	47.25	
989.838	50.25	
990.566	54.25	
991.295	40.25	
992.023	53.25	
992.751	51.25	
993.478	46.25	
994.206	48.25	
994.934	47.25	
995.662	-1.75	
996.389	-2.75	
997.117	9.25	
997.845	7.25	

