197.938	48.75	
198.749	50.75	
199.559	45.75	
200.369	46.75	
201.179	44.75	
201.988	47.75	
202.798	52.75	
203.608	44.75	
204.417	48.75	
205.227	41.75	
206.036	50.75	
206.846	47.75	
207.655	48.75	
208.464	50.75	
209.273	47.75	
210.082	38.75	
210.891	44.75	
211.7	46.75	
212.508	43.75	
213.317	45.75	
214.125	44.75	
214.934	50.75	
215.742	41.75	
216.55	49.75	
217.359	46.75	
218.167	46.75	
218.975	51.75	
219.782	40.75	
220.59	43.75	
221.398	43.75	
222.206	50.75	
223.013	45.75	
223.82	44.75	
224.628	42.75	
225.435	46.75	
226.242	50.75	
227.049	50.75	
227.856	46.75	
228.663	52.75	
229.47	48.75	
230.277	47.75	
231.083	43.75	
231.89	42.75	
232.696	47.75	
233.502	47.75	
234.309	44.75	
235.115	55.75	
235.921	49.75	
236.727	43.75	
237.533	55.75	
238.339	46.75	
239.144	44.75	
239.95	56.75	
240.756	52.75	
241.561	46.75	
242.366	44.75	
243.172	52.75	
243.977	46.75	
244.782	44.75	
245.587	48.75	
246.392	46.75	
247.197	44.75	
248.001	44.75	
248.806	46.75	
249.611	47.75	
250.415	47.75	
251.219	47.75	
252.024	50.75	
252.828	42.75	
253.632	44.75	
254.436	47.75	
255.24	52.75	
256.044	51.75	
256.848	44.75	
257.651	43.75	
258.455	47.75	
259.258	48.75	
260.062	3519.75	
260.865	46.75	
261.668	48.75	
262.471	48.75	
263.274	50.75	
264.077	43.75	
264.88	45.75	
265.683	44.75	
266.486	41.75	
267.288	48.75	
268.091	44.75	
268.893	53.75	
269.696	51.75	
270.498	48.75	
271.3	48.75	
272.102	52.75	
272.904	47.75	
273.706	50.75	
274.508	42.75	
275.309	50.75	
276.111	48.75	
276.913	44.75	
277.714	39.75	
278.515	43.75	
279.317	50.75	
280.118	44.75	
280.919	47.75	
281.72	45.75	
282.521	44.75	
283.322	50.75	
284.122	49.75	
284.923	50.75	
285.724	44.75	
286.524	46.75	
287.325	55.75	
288.125	37.75	
288.925	46.75	
289.725	49.75	
290.525	51.75	
291.325	47.75	
292.125	44.75	
292.925	50.75	
293.724	46.75	
294.524	44.75	
295.324	44.75	
296.123	43.75	
296.922	49.75	
297.722	64.75	
298.521	48.75	
299.32	60.75	
300.119	39.75	
300.918	45.75	
301.716	54.75	
302.515	45.75	
303.314	47.75	
304.112	45.75	
304.911	53.75	
305.709	47.75	
306.507	47.75	
307.306	49.75	
308.104	43.75	
308.902	47.75	
309.7	47.75	
310.498	48.75	
311.295	41.75	
312.093	50.75	
312.891	56.75	
313.688	47.75	
314.485	48.75	
315.283	54.75	
316.08	54.75	
316.877	43.75	
317.674	47.75	
318.471	44.75	
319.268	47.75	
320.065	52.75	
320.862	48.75	
321.658	44.75	
322.455	53.75	
323.251	46.75	
324.047	43.75	
324.844	53.75	
325.64	46.75	
326.436	48.75	
327.232	42.75	
328.028	48.75	
328.824	43.75	
329.62	49.75	
330.415	58.75	
331.211	48.75	
332.006	48.75	
332.802	51.75	
333.597	48.75	
334.392	50.75	
335.187	48.75	
335.982	43.75	
336.777	52.75	
337.572	43.75	
338.367	51.75	
339.162	48.75	
339.956	50.75	
340.751	51.75	
341.545	48.75	
342.34	47.75	
343.134	45.75	
343.928	52.75	
344.722	54.75	
345.516	48.75	
346.31	49.75	
347.104	49.75	
347.898	44.75	
348.691	50.75	
349.485	43.75	
350.278	48.75	
351.072	54.75	
351.865	517.75	
352.658	53.75	
353.452	52.75	
354.245	41.75	
355.038	53.75	
355.83	51.75	
356.623	48.75	
357.416	43.75	
358.209	48.75	
359.001	48.75	
359.794	48.75	
360.586	51.75	
361.378	53.75	
362.17	42.75	
362.963	43.75	
363.755	56.75	
364.546	43.75	
365.338	50.75	
366.13	49.75	
366.922	51.75	
367.713	46.75	
368.505	48.75	
369.296	47.75	
370.088	43.75	
370.879	44.75	
371.67	48.75	
372.461	44.75	
373.252	47.75	
374.043	52.75	
374.834	46.75	
375.625	49.75	
376.415	50.75	
377.206	46.75	
377.996	44.75	
378.787	53.75	
379.577	43.75	
380.367	42.75	
381.157	51.75	
381.947	47.75	
382.737	51.75	
383.527	49.75	
384.317	56.75	
385.107	46.75	
385.896	52.75	
386.686	51.75	
387.475	51.75	
388.265	47.75	
389.054	63.75	
389.843	51.75	
390.632	45.75	
391.421	50.75	
392.21	47.75	
392.999	41.75	
393.788	49.75	
394.576	53.75	
395.365	51.75	
396.154	45.75	
396.942	46.75	
397.73	48.75	
398.519	51.75	
399.307	47.75	
400.095	44.75	
400.883	58.75	
401.671	42.75	
402.459	49.75	
403.246	44.75	
404.034	46.75	
404.822	49.75	
405.609	52.75	
406.396	57.75	
407.184	44.75	
407.971	50.75	
408.758	53.75	
409.545	38.75	
410.332	47.75	
411.119	48.75	
411.906	46.75	
412.693	50.75	
413.479	55.75	
414.266	45.75	
415.052	53.75	
415.839	54.75	
416.625	46.75	
417.411	50.75	
418.197	50.75	
418.983	57.75	
419.769	56.75	
420.555	45.75	
421.341	46.75	
422.127	49.75	
422.912	50.75	
423.698	58.75	
424.483	46.75	
425.269	48.75	
426.054	45.75	
426.839	52.75	
427.624	50.75	
428.409	48.75	
429.194	47.75	
429.979	54.75	
430.764	44.75	
431.549	48.75	
432.333	46.75	
433.118	45.75	
433.902	55.75	
434.687	47.75	
435.471	48.75	
436.255	52.75	
437.039	47.75	
437.823	48.75	
438.607	46.75	
439.391	51.75	
440.175	46.75	
440.958	44.75	
441.742	44.75	
442.526	39.75	
443.309	46.75	
444.092	53.75	
444.876	47.75	
445.659	51.75	
446.442	55.75	
447.225	51.75	
448.008	59.75	
448.791	50.75	
449.573	57.75	
450.356	54.75	
451.139	51.75	
451.921	44.75	
452.704	52.75	
453.486	46.75	
454.268	50.75	
455.05	51.75	
455.833	48.75	
456.615	50.75	
457.396	47.75	
458.178	54.75	
458.96	43.75	
459.742	49.75	
460.523	46.75	
461.305	45.75	
462.086	51.75	
462.868	58.75	
463.649	49.75	
464.43	46.75	
465.211	58.75	
465.992	44.75	
466.773	56.75	
467.554	50.75	
468.335	52.75	
469.115	46.75	
469.896	45.75	
470.676	36.75	
471.457	52.75	
472.237	50.75	
473.018	48.75	
473.798	49.75	
474.578	52.75	
475.358	49.75	
476.138	47.75	
476.918	46.75	
477.697	49.75	
478.477	52.75	
479.257	50.75	
480.036	44.75	
480.816	42.75	
481.595	48.75	
482.374	48.75	
483.153	49.75	
483.932	46.75	
484.711	49.75	
485.49	48.75	
486.269	47.75	
487.048	43.75	
487.827	51.75	
488.605	50.75	
489.384	49.75	
490.162	50.75	
490.941	54.75	
491.719	47.75	
492.497	45.75	
493.275	46.75	
494.053	47.75	
494.831	42.75	
495.609	52.75	
496.387	50.75	
497.164	51.75	
497.942	51.75	
498.72	44.75	
499.497	53.75	
500.274	43.75	
501.052	43.75	
501.829	57.75	
502.606	46.75	
503.383	50.75	
504.16	51.75	
504.937	48.75	
505.714	45.75	
506.49	53.75	
507.267	48.75	
508.043	47.75	
508.82	54.75	
509.596	43.75	
510.373	51.75	
511.149	46.75	
511.925	48.75	
512.701	49.75	
513.477	52.75	
514.253	50.75	
515.029	46.75	
515.804	50.75	
516.58	60.75	
517.356	44.75	
518.131	56.75	
518.906	45.75	
519.682	51.75	
520.457	47.75	
521.232	49.75	
522.007	52.75	
522.782	49.75	
523.557	45.75	
524.332	47.75	
525.107	51.75	
525.881	52.75	
526.656	43.75	
527.43	43.75	
528.205	45.75	
528.979	39.75	
529.753	52.75	
530.527	51.75	
531.302	48.75	
532.076	50.75	
532.849	48.75	
533.623	49.75	
534.397	48.75	
535.171	48.75	
535.944	55.75	
536.718	43.75	
537.491	61.75	
538.265	44.75	
539.038	52.75	
539.811	51.75	
540.584	44.75	
541.357	45.75	
542.13	56.75	
542.903	59.75	
543.676	45.75	
544.449	47.75	
545.221	54.75	
545.994	49.75	
546.766	49.75	
547.539	44.75	
548.311	50.75	
549.083	49.75	
549.855	41.75	
550.627	52.75	
551.399	50.75	
552.171	55.75	
552.943	52.75	
553.715	49.75	
554.486	47.75	
555.258	47.75	
556.029	48.75	
556.801	53.75	
557.572	47.75	
558.343	47.75	
559.114	47.75	
559.886	52.75	
560.657	47.75	
561.427	42.75	
562.198	45.75	
562.969	56.75	
563.74	50.75	
564.51	47.75	
565.281	52.75	
566.051	47.75	
566.822	51.75	
567.592	51.75	
568.362	49.75	
569.132	48.75	
569.902	60.75	
570.672	44.75	
571.442	54.75	
572.212	52.75	
572.982	47.75	
573.751	50.75	
574.521	47.75	
575.29	55.75	
576.06	55.75	
576.829	45.75	
577.598	46.75	
578.367	47.75	
579.136	44.75	
579.905	48.75	
580.674	50.75	
581.443	53.75	
582.212	48.75	
582.981	54.75	
583.749	48.75	
584.518	53.75	
585.286	57.75	
586.054	55.75	
586.823	52.75	
587.591	47.75	
588.359	55.75	
589.127	53.75	
589.895	56.75	
590.663	56.75	
591.431	51.75	
592.198	59.75	
592.966	54.75	
593.734	59.75	
594.501	49.75	
595.268	53.75	
596.036	54.75	
596.803	51.75	
597.57	47.75	
598.337	45.75	
599.104	49.75	
599.871	50.75	
600.638	52.75	
601.405	62.75	
602.171	47.75	
602.938	61.75	
603.704	49.75	
604.471	47.75	
605.237	60.75	
606.004	50.75	
606.77	55.75	
607.536	52.75	
608.302	53.75	
609.068	55.75	
609.834	46.75	
610.599	52.75	
611.365	49.75	
612.131	52.75	
612.896	51.75	
613.662	56.75	
614.427	55.75	
615.193	54.75	
615.958	50.75	
616.723	53.75	
617.488	48.75	
618.253	50.75	
619.018	48.75	
619.783	48.75	
620.548	53.75	
621.312	49.75	
622.077	46.75	
622.842	49.75	
623.606	62.75	
624.37	53.75	
625.135	56.75	
625.899	52.75	
626.663	48.75	
627.427	51.75	
628.191	50.75	
628.955	52.75	
629.719	48.75	
630.483	53.75	
631.246	45.75	
632.01	48.75	
632.773	57.75	
633.537	44.75	
634.3	51.75	
635.063	52.75	
635.827	46.75	
636.59	51.75	
637.353	52.75	
638.116	53.75	
638.879	44.75	
639.641	56.75	
640.404	53.75	
641.167	51.75	
641.929	57.75	
642.692	46.75	
643.454	46.75	
644.216	48.75	
644.979	49.75	
645.741	51.75	
646.503	58.75	
647.265	53.75	
648.027	59.75	
648.789	46.75	
649.551	51.75	
650.312	51.75	
651.074	48.75	
651.835	47.75	
652.597	53.75	
653.358	53.75	
654.12	48.75	
654.881	52.75	
655.642	51.75	
656.403	48.75	
657.164	48.75	
657.925	47.75	
658.686	56.75	
659.447	48.75	
660.207	49.75	
660.968	49.75	
661.728	54.75	
662.489	48.75	
663.249	52.75	
664.01	52.75	
664.77	51.75	
665.53	56.75	
666.29	48.75	
667.05	47.75	
667.81	47.75	
668.57	47.75	
669.329	50.75	
670.089	52.75	
670.849	49.75	
671.608	53.75	
672.368	39.75	
673.127	54.75	
673.886	50.75	
674.646	44.75	
675.405	49.75	
676.164	51.75	
676.923	51.75	
677.682	60.75	
678.44	51.75	
679.199	50.75	
679.958	63.75	
680.717	49.75	
681.475	46.75	
682.233	47.75	
682.992	43.75	
683.75	51.75	
684.508	51.75	
685.266	46.75	
686.024	54.75	
686.782	48.75	
687.54	55.75	
688.298	52.75	
689.056	53.75	
689.814	45.75	
690.571	52.75	
691.329	49.75	
692.086	49.75	
692.843	46.75	
693.601	54.75	
694.358	55.75	
695.115	50.75	
695.872	48.75	
696.629	48.75	
697.386	57.75	
698.143	52.75	
698.9	46.75	
699.656	46.75	
700.413	43.75	
701.169	52.75	
701.926	45.75	
702.682	50.75	
703.438	50.75	
704.195	59.75	
704.951	46.75	
705.707	44.75	
706.463	42.75	
707.219	45.75	
707.974	44.75	
708.73	41.75	
709.486	46.75	
710.241	49.75	
710.997	46.75	
711.752	48.75	
712.508	54.75	
713.263	55.75	
714.018	49.75	
714.773	47.75	
715.528	51.75	
716.283	50.75	
717.038	45.75	
717.793	52.75	
718.548	50.75	
719.303	47.75	
720.057	47.75	
720.812	48.75	
721.566	46.75	
722.321	45.75	
723.075	47.75	
723.829	50.75	
724.583	46.75	
725.337	46.75	
726.091	55.75	
726.845	50.75	
727.599	48.75	
728.353	52.75	
729.106	42.75	
729.86	57.75	
730.614	44.75	
731.367	362.75	
732.12	46.75	
732.874	43.75	
733.627	48.75	
734.38	50.75	
735.133	50.75	
735.886	46.75	
736.639	47.75	
737.392	48.75	
738.145	47.75	
738.897	53.75	
739.65	51.75	
740.403	50.75	
741.155	51.75	
741.907	49.75	
742.66	54.75	
743.412	40.75	
744.164	51.75	
744.916	44.75	
745.668	53.75	
746.42	55.75	
747.172	48.75	
747.924	47.75	
748.676	42.75	
749.427	49.75	
750.179	49.75	
750.93	50.75	
751.682	42.75	
752.433	50.75	
753.184	50.75	
753.935	48.75	
754.687	43.75	
755.438	51.75	
756.189	50.75	
756.939	45.75	
757.69	45.75	
758.441	50.75	
759.192	50.75	
759.942	48.75	
760.693	53.75	
761.443	52.75	
762.194	44.75	
762.944	46.75	
763.694	44.75	
764.444	46.75	
765.194	54.75	
765.944	53.75	
766.694	55.75	
767.444	54.75	
768.194	50.75	
768.943	47.75	
769.693	52.75	
770.443	52.75	
771.192	55.75	
771.941	41.75	
772.691	51.75	
773.44	46.75	
774.189	50.75	
774.938	51.75	
775.687	46.75	
776.436	49.75	
777.185	52.75	
777.934	49.75	
778.683	52.75	
779.431	48.75	
780.18	54.75	
780.928	49.75	
781.677	48.75	
782.425	48.75	
783.173	53.75	
783.922	50.75	
784.67	56.75	
785.418	52.75	
786.166	55.75	
786.914	44.75	
787.661	50.75	
788.409	49.75	
789.157	51.75	
789.904	46.75	
790.652	54.75	
791.399	50.75	
792.147	49.75	
792.894	55.75	
793.641	48.75	
794.388	327.75	
795.136	55.75	
795.883	48.75	
796.629	54.75	
797.376	45.75	
798.123	45.75	
798.87	45.75	
799.616	48.75	
800.363	51.75	
801.109	57.75	
801.856	48.75	
802.602	36.75	
803.349	57.75	
804.095	54.75	
804.841	48.75	
805.587	54.75	
806.333	48.75	
807.079	46.75	
807.825	50.75	
808.57	51.75	
809.316	58.75	
810.062	49.75	
810.807	49.75	
811.553	54.75	
812.298	57.75	
813.043	56.75	
813.788	51.75	
814.534	48.75	
815.279	54.75	
816.024	59.75	
816.769	50.75	
817.514	53.75	
818.258	51.75	
819.003	54.75	
819.748	1019.75	
820.492	51.75	
821.237	248.75	
821.981	47.75	
822.726	54.75	
823.47	55.75	
824.214	54.75	
824.958	47.75	
825.702	52.75	
826.446	55.75	
827.19	51.75	
827.934	59.75	
828.678	51.75	
829.421	57.75	
830.165	50.75	
830.909	49.75	
831.652	50.75	
832.395	51.75	
833.139	50.75	
833.882	61.75	
834.625	49.75	
835.368	50.75	
836.111	44.75	
836.854	46.75	
837.597	51.75	
838.34	50.75	
839.083	51.75	
839.825	60.75	
840.568	43.75	
841.311	51.75	
842.053	57.75	
842.795	46.75	
843.538	51.75	
844.28	47.75	
845.022	44.75	
845.764	60.75	
846.506	46.75	
847.248	47.75	
847.99	50.75	
848.732	56.75	
849.474	48.75	
850.215	43.75	
850.957	40.75	
851.698	43.75	
852.44	56.75	
853.181	53.75	
853.922	52.75	
854.664	48.75	
855.405	54.75	
856.146	44.75	
856.887	52.75	
857.628	52.75	
858.369	41.75	
859.109	54.75	
859.85	45.75	
860.591	53.75	
861.331	45.75	
862.072	44.75	
862.812	42.75	
863.553	44.75	
864.293	49.75	
865.033	43.75	
865.773	47.75	
866.513	42.75	
867.253	48.75	
867.993	47.75	
868.733	49.75	
869.473	50.75	
870.213	54.75	
870.952	45.75	
871.692	49.75	
872.431	44.75	
873.171	47.75	
873.91	43.75	
874.649	41.75	
875.388	49.75	
876.128	48.75	
876.867	46.75	
877.606	48.75	
878.345	49.75	
879.083	43.75	
879.822	46.75	
880.561	47.75	
881.299	47.75	
882.038	49.75	
882.777	53.75	
883.515	52.75	
884.253	517.75	
884.992	49.75	
885.73	47.75	
886.468	43.75	
887.206	55.75	
887.944	47.75	
888.682	49.75	
889.42	50.75	
890.157	51.75	
890.895	43.75	
891.633	92.75	
892.37	50.75	
893.108	54.75	
893.845	48.75	
894.583	51.75	
895.32	40.75	
896.057	43.75	
896.794	50.75	
897.531	51.75	
898.268	49.75	
899.005	46.75	
899.742	49.75	
900.479	49.75	
901.215	48.75	
901.952	50.75	
902.689	45.75	
903.425	41.75	
904.162	43.75	
904.898	49.75	
905.634	53.75	
906.37	51.75	
907.106	40.75	
907.843	52.75	
908.579	48.75	
909.314	38.75	
910.05	47.75	
910.786	42.75	
911.522	42.75	
912.257	49.75	
912.993	51.75	
913.728	44.75	
914.464	47.75	
915.199	45.75	
915.935	45.75	
916.67	47.75	
917.405	49.75	
918.14	49.75	
918.875	47.75	
919.61	58.75	
920.345	51.75	
921.08	59.75	
921.814	50.75	
922.549	45.75	
923.284	54.75	
924.018	43.75	
924.752	50.75	
925.487	51.75	
926.221	51.75	
926.955	46.75	
927.69	42.75	
928.424	48.75	
929.158	48.75	
929.892	47.75	
930.625	49.75	
931.359	48.75	
932.093	47.75	
932.827	49.75	
933.56	47.75	
934.294	41.75	
935.027	46.75	
935.761	51.75	
936.494	51.75	
937.227	41.75	
937.96	52.75	
938.693	51.75	
939.426	42.75	
940.159	58.75	
940.892	47.75	
941.625	57.75	
942.358	50.75	
943.091	42.75	
943.823	45.75	
944.556	40.75	
945.288	50.75	
946.021	55.75	
946.753	47.75	
947.485	55.75	
948.217	52.75	
948.95	47.75	
949.682	43.75	
950.414	49.75	
951.146	49.75	
951.877	48.75	
952.609	44.75	
953.341	51.75	
954.073	55.75	
954.804	49.75	
955.536	49.75	
956.267	51.75	
956.998	45.75	
957.73	45.75	
958.461	44.75	
959.192	44.75	
959.923	50.75	
960.654	49.75	
961.385	44.75	
962.116	51.75	
962.847	47.75	
963.578	45.75	
964.308	47.75	
965.039	43.75	
965.769	51.75	
966.5	48.75	
967.23	44.75	
967.961	47.75	
968.691	53.75	
969.421	40.75	
970.151	54.75	
970.881	42.75	
971.611	51.75	
972.341	50.75	
973.071	48.75	
973.801	51.75	
974.53	47.75	
975.26	47.75	
975.99	51.75	
976.719	46.75	
977.448	48.75	
978.178	47.75	
978.907	47.75	
979.636	46.75	
980.365	49.75	
981.095	53.75	
981.824	52.75	
982.553	45.75	
983.281	45.75	
984.01	2.75	
984.739	-5.25	
985.468	-3.25	
986.196	-6.25	
986.925	59.75	
987.653	47.75	
988.382	51.75	
989.11	47.75	
989.838	52.75	
990.566	54.75	
991.295	48.75	
992.023	53.75	
992.751	53.75	
993.478	47.75	
994.206	48.75	
994.934	43.75	
995.662	-2.25	
996.389	-4.25	
997.117	7.75	
997.845	10.75	

